Time, Aircraft mass
   0.000000, 20798.430875
   0.001667, 20798.397657
   0.003333, 20798.364389
   0.005000, 20798.331119
   0.006667, 20798.297849
   0.008333, 20798.264579
   0.010000, 20798.231309
   0.011667, 20798.198038
   0.013333, 20798.164768
   0.015000, 20798.131498
   0.016667, 20798.098228
   0.018333, 20798.064958
   0.020000, 20798.031663
   0.021667, 20797.998364
   0.023333, 20797.965066
   0.025000, 20797.931768
   0.026667, 20797.898470
   0.028333, 20797.865171
   0.030000, 20797.831873
   0.031667, 20797.798575
   0.033333, 20797.765277
   0.035000, 20797.731978
   0.036667, 20797.698663
   0.038333, 20797.665345
   0.040000, 20797.632027
   0.041667, 20797.598709
   0.043333, 20797.565391
   0.045000, 20797.532074
   0.046667, 20797.498756
   0.048333, 20797.465438
   0.050000, 20797.432120
   0.051667, 20797.398802
   0.053333, 20797.365475
   0.055000, 20797.332145
   0.056667, 20797.298816
   0.058333, 20797.265487
   0.060000, 20797.232158
   0.061667, 20797.198829
   0.063333, 20797.165500
   0.065000, 20797.132170
   0.066667, 20797.098841
   0.068333, 20797.065512
   0.070000, 20797.032180
   0.071667, 20796.998847
   0.073333, 20796.965515
   0.075000, 20796.932182
   0.076667, 20796.898849
   0.078333, 20796.865517
   0.080000, 20796.832184
   0.081667, 20796.798852
   0.083333, 20796.765519
   0.085000, 20796.732186
   0.086667, 20796.698841
   0.088333, 20796.665494
   0.090000, 20796.632147
   0.091667, 20796.598801
   0.093333, 20796.565454
   0.095000, 20796.532107
   0.096667, 20796.498760
   0.098333, 20796.465413
   0.100000, 20796.432066
   0.101667, 20796.398720
   0.103333, 20796.365338
   0.105000, 20796.331952
   0.106667, 20796.298565
   0.108333, 20796.265179
   0.110000, 20796.231793
   0.111667, 20796.198407
   0.113333, 20796.165020
   0.115000, 20796.131634
   0.116667, 20796.098248
   0.118333, 20796.064862
   0.120000, 20796.031455
   0.121667, 20795.998046
   0.123333, 20795.964637
   0.125000, 20795.931228
   0.126667, 20795.897819
   0.128333, 20795.864410
   0.130000, 20795.831001
   0.131667, 20795.797592
   0.133333, 20795.764183
   0.135000, 20795.730774
   0.136667, 20795.697360
   0.138333, 20795.663945
   0.140000, 20795.630530
   0.141667, 20795.597114
   0.143333, 20795.563699
   0.145000, 20795.530284
   0.146667, 20795.496869
   0.148333, 20795.463454
   0.150000, 20795.430039
   0.151667, 20795.396623
   0.153333, 20795.363217
   0.155000, 20795.329811
   0.156667, 20795.296405
   0.158333, 20795.263000
   0.160000, 20795.229594
   0.161667, 20795.196188
   0.163333, 20795.162782
   0.165000, 20795.129377
   0.166667, 20795.095971
   0.168333, 20795.062565
   0.170000, 20795.029181
   0.171667, 20794.995799
   0.173333, 20794.962418
   0.175000, 20794.929036
   0.176667, 20794.895654
   0.178333, 20794.862273
   0.180000, 20794.828891
   0.181667, 20794.795509
   0.183333, 20794.762128
   0.185000, 20794.728746
   0.186667, 20794.695340
   0.188333, 20794.661931
   0.190000, 20794.628522
   0.191667, 20794.595113
   0.193333, 20794.561704
   0.195000, 20794.528295
   0.196667, 20794.494886
   0.198333, 20794.461477
   0.200000, 20794.428068
   0.201667, 20794.394659
   0.203333, 20794.361185
   0.205000, 20794.327702
   0.206667, 20794.294219
   0.208333, 20794.260736
   0.210000, 20794.227253
   0.211667, 20794.193770
   0.213333, 20794.160287
   0.215000, 20794.126804
   0.216667, 20794.093321
   0.218333, 20794.059838
   0.220000, 20794.026319
   0.221667, 20793.992796
   0.223333, 20793.959273
   0.225000, 20793.925749
   0.226667, 20793.892226
   0.228333, 20793.858703
   0.230000, 20793.825179
   0.231667, 20793.791656
   0.233333, 20793.758133
   0.235000, 20793.724609
   0.236667, 20793.691078
   0.238333, 20793.657545
   0.240000, 20793.624012
   0.241667, 20793.590480
   0.243333, 20793.556947
   0.245000, 20793.523415
   0.246667, 20793.489882
   0.248333, 20793.456349
   0.250000, 20793.422817
   0.251667, 20793.389284
   0.253333, 20793.355769
   0.255000, 20793.322255
   0.256667, 20793.288742
   0.258333, 20793.255229
   0.260000, 20793.221715
   0.261667, 20793.188202
   0.263333, 20793.154688
   0.265000, 20793.121175
   0.266667, 20793.087662
   0.268333, 20793.054148
   0.270000, 20793.020675
   0.271667, 20792.987206
   0.273333, 20792.953738
   0.275000, 20792.920270
   0.276667, 20792.886801
   0.278333, 20792.853333
   0.280000, 20792.819865
   0.281667, 20792.786396
   0.283333, 20792.752928
   0.285000, 20792.719460
   0.286667, 20792.686051
   0.288333, 20792.652650
   0.290000, 20792.619249
   0.291667, 20792.585849
   0.293333, 20792.552448
   0.295000, 20792.519047
   0.296667, 20792.485646
   0.298333, 20792.452245
   0.300000, 20792.418844
   0.301667, 20792.385443
   0.303333, 20792.352047
   0.305000, 20792.318652
   0.306667, 20792.285257
   0.308333, 20792.251863
   0.310000, 20792.218468
   0.311667, 20792.185073
   0.312369, 20792.170994
   0.314036, 20792.137563
   0.315703, 20792.104131
   0.317369, 20792.070700
   0.319036, 20792.037257
   0.320703, 20792.003790
   0.322369, 20791.970322
   0.324036, 20791.936855
   0.325703, 20791.903387
   0.327369, 20791.869919
   0.329036, 20791.836452
   0.330703, 20791.802984
   0.332369, 20791.769516
   0.334036, 20791.736049
   0.335703, 20791.702572
   0.337369, 20791.669073
   0.339036, 20791.635574
   0.340703, 20791.602075
   0.342369, 20791.568576
   0.344036, 20791.535077
   0.345703, 20791.501578
   0.347369, 20791.468079
   0.349036, 20791.434580
   0.350703, 20791.401081
   0.352369, 20791.367580
   0.354036, 20791.334074
   0.355703, 20791.300567
   0.357369, 20791.267061
   0.359036, 20791.233555
   0.360703, 20791.200048
   0.362369, 20791.166542
   0.364036, 20791.133036
   0.365703, 20791.099529
   0.367369, 20791.066023
   0.368518, 20791.042923
   0.370185, 20791.009426
   0.371852, 20790.975930
   0.373518, 20790.942433
   0.375185, 20790.908937
   0.376852, 20790.875440
   0.378518, 20790.841944
   0.380185, 20790.808447
   0.381852, 20790.774951
   0.383518, 20790.741454
   0.385185, 20790.707957
   0.386852, 20790.674471
   0.388518, 20790.640984
   0.390185, 20790.607497
   0.391852, 20790.574011
   0.393518, 20790.540524
   0.395185, 20790.507043
   0.396852, 20790.473562
   0.398518, 20790.440081
   0.400185, 20790.406600
   0.401852, 20790.373119
   0.403518, 20790.339643
   0.405185, 20790.306166
   0.406852, 20790.272690
   0.408518, 20790.239214
   0.410185, 20790.205737
   0.410185, 20790.205737
   1.604481, 20769.794547
   2.823272, 20749.272548
   4.081386, 20728.536635
   5.429985, 20707.137227
   6.915721, 20684.661587
   8.560390, 20660.846993
  10.397371, 20635.317024
  12.485334, 20607.510150
  14.968358, 20576.048382
  14.968358, 20576.048382
  15.830802, 20565.653259
  16.693245, 20555.260044
  17.555688, 20544.868738
  18.418132, 20534.479341
  19.280575, 20524.091852
  20.143018, 20513.706272
  21.005461, 20503.322601
  21.867905, 20492.940838
  22.730348, 20482.560983
  23.592791, 20472.183037
  24.455235, 20461.806999
  25.317678, 20451.432869
  26.180121, 20441.060648
  27.042565, 20430.690334
  27.905008, 20420.321929
  28.767451, 20409.955432
  29.629895, 20399.590843
  30.492338, 20389.228162
  31.354781, 20378.867388
  32.217225, 20368.508523
  33.079668, 20358.151565
  33.942111, 20347.796515
  34.804555, 20337.443373
  35.666998, 20327.092138
  36.529441, 20316.742811
  37.391885, 20306.395392
  38.254328, 20296.049880
  39.116771, 20285.706275
  39.979215, 20275.364578
  39.979215, 20275.364578
  41.139143, 20266.455594
  42.301874, 20257.678138
  43.463193, 20248.976006
  44.619342, 20240.453940
  45.768081, 20232.105036
  46.905098, 20223.926577
  48.026307, 20216.045198
  49.143709, 20208.333834
  50.253604, 20200.739793
  50.253604, 20200.739793
  50.833005, 20190.912861
  51.418049, 20181.065573
  52.008556, 20171.204272
  52.607292, 20161.308088
  53.225054, 20151.281399
  53.871173, 20141.044910
  54.548638, 20130.575451
  55.259779, 20119.846512
  56.006440, 20108.831206
  56.006440, 20108.831206
  57.858634, 20091.278422
  59.711637, 20073.732398
  61.565449, 20056.193148
  63.420072, 20038.660681
  65.275506, 20021.135010
  67.131752, 20003.616146
  68.988810, 19986.104100
  70.846682, 19968.598885
  72.705368, 19951.100510
  72.705368, 19951.100510
  73.351774, 19945.791052
  73.988012, 19940.547534
  74.626788, 19935.854163
  75.268241, 19931.149404
  75.912514, 19926.447199
  76.559398, 19921.742020
  77.208755, 19917.016831
  77.860123, 19912.275070
  78.512585, 19907.527476
  78.512585, 19907.527476
  83.512585, 19862.096609
  88.512585, 19816.754486
  93.512585, 19771.501012
  98.512585, 19726.335249
 103.512585, 19681.254865
 108.512585, 19636.259772
 113.512585, 19591.349881
 118.512585, 19546.525101
 123.512585, 19501.785343
 123.512585, 19501.785343
 123.514252, 19501.772081
 123.515918, 19501.758819
 123.517585, 19501.745557
 123.519252, 19501.732294
 123.520918, 19501.719030
 123.522585, 19501.705767
 123.524252, 19501.692504
 123.525918, 19501.679240
 123.527585, 19501.665977
 123.529252, 19501.652714
 123.530918, 19501.639450
 123.532585, 19501.626187
 123.534252, 19501.612924
 123.535918, 19501.599658
 123.537585, 19501.586393
 123.539252, 19501.573127
 123.540918, 19501.559861
 123.542585, 19501.546596
 123.544252, 19501.533330
 123.545918, 19501.520065
 123.547585, 19501.506799
 123.549252, 19501.493533
 123.550918, 19501.480268
 123.552585, 19501.467000
 123.554252, 19501.453733
 123.555918, 19501.440465
 123.557585, 19501.427197
 123.559252, 19501.413929
 123.560918, 19501.400661
 123.562585, 19501.387393
 123.564252, 19501.374126
 123.565918, 19501.360858
 123.567585, 19501.347590
 123.569252, 19501.334320
 123.570918, 19501.321050
 123.572585, 19501.307780
 123.574252, 19501.294510
 123.575918, 19501.281240
 123.577585, 19501.267970
 123.579252, 19501.254700
 123.580918, 19501.241430
 123.582585, 19501.228160
 123.584252, 19501.214890
 123.585918, 19501.201618
 123.587585, 19501.188346
 123.589252, 19501.175073
 123.590918, 19501.161801
 123.592585, 19501.148529
 123.594252, 19501.135257
 123.595918, 19501.121984
 123.597585, 19501.108712
 123.599252, 19501.095440
 123.600918, 19501.082168
 123.602585, 19501.068894
 123.604252, 19501.055619
 123.605918, 19501.042345
 123.607585, 19501.029070
 123.609252, 19501.015796
 123.610918, 19501.002521
 123.612585, 19500.989247
 123.614252, 19500.975972
 123.615918, 19500.962698
 123.617585, 19500.949423
 123.619252, 19500.936147
 123.620918, 19500.922870
 123.622585, 19500.909594
 123.624252, 19500.896317
 123.625918, 19500.883040
 123.627585, 19500.869764
 123.629252, 19500.856487
 123.630918, 19500.843210
 123.632585, 19500.829934
 123.634252, 19500.816657
 123.635918, 19500.803379
 123.637585, 19500.790100
 123.639252, 19500.776821
 123.640918, 19500.763542
 123.642585, 19500.750263
 123.644252, 19500.736984
 123.645918, 19500.723705
 123.647585, 19500.710427
 123.649252, 19500.697148
 123.650918, 19500.683869
 123.652585, 19500.670588
 123.654252, 19500.657307
 123.655918, 19500.644026
 123.657585, 19500.630745
 123.659252, 19500.617464
 123.660918, 19500.604183
 123.662585, 19500.590902
 123.664252, 19500.577620
 123.665918, 19500.564339
 123.667585, 19500.551058
 123.669252, 19500.537775
 123.670918, 19500.524492
 123.672585, 19500.511209
 123.674252, 19500.497926
 123.675918, 19500.484642
 123.677585, 19500.471359
 123.679252, 19500.458076
 123.680918, 19500.444792
 123.682585, 19500.431509
 123.684252, 19500.418226
 123.685918, 19500.404941
 123.687585, 19500.391655
 123.689252, 19500.378370
 123.690918, 19500.365084
 123.692585, 19500.351799
 123.694252, 19500.338513
 123.695918, 19500.325228
 123.697585, 19500.311942
 123.699252, 19500.298657
 123.700918, 19500.285372
 123.702585, 19500.272084
 123.704252, 19500.258797
 123.705918, 19500.245509
 123.707585, 19500.232221
 123.709252, 19500.218934
 123.710918, 19500.205646
 123.712585, 19500.192359
 123.714252, 19500.179071
 123.715918, 19500.165783
 123.717585, 19500.152496
 123.719252, 19500.139206
 123.720918, 19500.125917
 123.722585, 19500.112627
 123.724252, 19500.099337
 123.725918, 19500.086047
 123.727585, 19500.072757
 123.729252, 19500.059468
 123.730918, 19500.046178
 123.732585, 19500.032888
 123.734252, 19500.019598
 123.735918, 19500.006307
 123.737585, 19499.993015
 123.739252, 19499.979723
 123.740918, 19499.966431
 123.742585, 19499.953139
 123.744252, 19499.939847
 123.745918, 19499.926555
 123.747585, 19499.913263
 123.749252, 19499.899971
 123.750918, 19499.886679
 123.752585, 19499.873386
 123.754252, 19499.860092
 123.755918, 19499.846798
 123.757585, 19499.833503
 123.759252, 19499.820209
 123.760918, 19499.806915
 123.762585, 19499.793621
 123.764252, 19499.780327
 123.765918, 19499.767033
 123.767585, 19499.753739
 123.769252, 19499.740443
 123.770918, 19499.727147
 123.772585, 19499.713851
 123.774252, 19499.700554
 123.775918, 19499.687258
 123.777585, 19499.673962
 123.779252, 19499.660666
 123.780918, 19499.647370
 123.782585, 19499.634073
 123.784252, 19499.620777
 123.785918, 19499.607479
 123.787585, 19499.594181
 123.789252, 19499.580882
 123.790918, 19499.567584
 123.792585, 19499.554286
 123.794252, 19499.540987
 123.795918, 19499.527689
 123.797585, 19499.514391
 123.799252, 19499.501092
 123.800918, 19499.487794
 123.802585, 19499.474494
 123.804252, 19499.461193
 123.805918, 19499.447893
 123.807585, 19499.434592
 123.809252, 19499.421292
 123.810918, 19499.407991
 123.812585, 19499.394691
 123.814252, 19499.381390
 123.815918, 19499.368089
 123.817585, 19499.354789
 123.819252, 19499.341487
 123.820918, 19499.328184
 123.822585, 19499.314881
 123.824252, 19499.301579
 123.825918, 19499.288276
 123.827585, 19499.274973
 123.829252, 19499.261671
 123.830918, 19499.248368
 123.832585, 19499.235065
 123.834252, 19499.221763
 123.835918, 19499.208458
 123.837585, 19499.195153
 123.839252, 19499.181849
 123.840918, 19499.168544
 123.842585, 19499.155239
 123.844252, 19499.141934
 123.845918, 19499.128629
 123.847585, 19499.115325
 123.849252, 19499.102020
 123.850918, 19499.088715
 123.852585, 19499.075408
 123.854252, 19499.062101
 123.855918, 19499.048795
 123.857585, 19499.035488
 123.859252, 19499.022181
 123.860918, 19499.008874
 123.862585, 19498.995567
 123.864252, 19498.982260
 123.865918, 19498.968953
 123.867585, 19498.955646
 123.869252, 19498.942337
 123.870918, 19498.929028
 123.872585, 19498.915719
 123.874252, 19498.902410
 123.875918, 19498.889101
 123.877585, 19498.875792
 123.879252, 19498.862483
 123.880918, 19498.849173
 123.882585, 19498.835864
 123.884252, 19498.822555
 123.885918, 19498.809244
 123.887585, 19498.795933
 123.889252, 19498.782622
 123.890918, 19498.769311
 123.892585, 19498.755999
 123.894252, 19498.742688
 123.895918, 19498.729377
 123.897585, 19498.716066
 123.899252, 19498.702755
 123.900918, 19498.689443
 123.902585, 19498.676130
 123.904252, 19498.662817
 123.905918, 19498.649503
 123.907585, 19498.636190
 123.909252, 19498.622877
 123.910918, 19498.609563
 123.912585, 19498.596250
 123.914252, 19498.582937
 123.915918, 19498.569623
 123.917585, 19498.556310
 123.919252, 19498.542995
 123.920918, 19498.529679
 123.922585, 19498.516364
 123.924252, 19498.503048
 123.925918, 19498.489732
 123.927585, 19498.476417
 123.929252, 19498.463101
 123.930918, 19498.449786
 123.932585, 19498.436470
 123.934252, 19498.423155
 123.935918, 19498.409838
 123.937585, 19498.396520
 123.939252, 19498.383202
 123.940918, 19498.369885
 123.942585, 19498.356567
 123.944252, 19498.343249
 123.945918, 19498.329932
 123.947585, 19498.316614
 123.949252, 19498.303296
 123.950918, 19498.289979
 123.952585, 19498.276659
 123.954252, 19498.263339
 123.955918, 19498.250019
 123.957585, 19498.236700
 123.959252, 19498.223380
 123.960918, 19498.210060
 123.962585, 19498.196740
 123.964252, 19498.183420
 123.965918, 19498.170101
 123.967585, 19498.156781
 123.969252, 19498.143459
 123.970918, 19498.130137
 123.972585, 19498.116815
 123.974252, 19498.103493
 123.975918, 19498.090171
 123.977585, 19498.076850
 123.979252, 19498.063528
 123.980918, 19498.050206
 123.982585, 19498.036884
 123.984252, 19498.023562
 123.985918, 19498.010238
 123.987585, 19497.996914
 123.989252, 19497.983590
 123.990918, 19497.970266
 123.992585, 19497.956942
 123.994252, 19497.943618
 123.995918, 19497.930294
 123.997585, 19497.916970
 123.999252, 19497.903645
 124.000918, 19497.890321
 124.002585, 19497.876996
 124.004252, 19497.863669
 124.005918, 19497.850343
 124.007585, 19497.837017
 124.009252, 19497.823691
 124.010918, 19497.810364
 124.012585, 19497.797038
 124.014252, 19497.783712
 124.015918, 19497.770386
 124.017585, 19497.757060
 124.019252, 19497.743732
 124.020918, 19497.730403
 124.022585, 19497.717075
 124.024252, 19497.703747
 124.025918, 19497.690418
 124.027585, 19497.677090
 124.029252, 19497.663762
 124.030918, 19497.650433
 124.032585, 19497.637105
 124.034252, 19497.623777
 124.035918, 19497.610446
 124.037585, 19497.597116
 124.039252, 19497.583785
 124.040918, 19497.570455
 124.042585, 19497.557124
 124.044252, 19497.543794
 124.045918, 19497.530463
 124.047585, 19497.517133
 124.049252, 19497.503802
 124.050918, 19497.490472
 124.052585, 19497.477140
 124.054252, 19497.463807
 124.055918, 19497.450474
 124.057585, 19497.437142
 124.059252, 19497.423809
 124.060918, 19497.410476
 124.062585, 19497.397144
 124.064252, 19497.383811
 124.065918, 19497.370478
 124.067585, 19497.357146
 124.069252, 19497.343811
 124.070918, 19497.330477
 124.072585, 19497.317142
 124.074252, 19497.303807
 124.075918, 19497.290472
 124.077585, 19497.277137
 124.079252, 19497.263803
 124.080918, 19497.250468
 124.082585, 19497.237133
 124.084252, 19497.223798
 124.085918, 19497.210462
 124.087585, 19497.197125
 124.089252, 19497.183788
 124.090918, 19497.170451
 124.092585, 19497.157114
 124.094252, 19497.143777
 124.095918, 19497.130440
 124.097585, 19497.117103
 124.099252, 19497.103766
 124.100918, 19497.090429
 124.102585, 19497.077091
 124.104252, 19497.063752
 124.105918, 19497.050413
 124.107585, 19497.037074
 124.109252, 19497.023735
 124.110918, 19497.010395
 124.112585, 19496.997056
 124.114252, 19496.983717
 124.115918, 19496.970378
 124.117585, 19496.957039
 124.119252, 19496.943698
 124.120918, 19496.930357
 124.122585, 19496.917016
 124.124252, 19496.903675
 124.125918, 19496.890334
 124.127585, 19496.876993
 124.129252, 19496.863651
 124.130918, 19496.850310
 124.132585, 19496.836969
 124.134252, 19496.823628
 124.135918, 19496.810285
 124.137585, 19496.796942
 124.139252, 19496.783598
 124.140918, 19496.770255
 124.142585, 19496.756912
 124.144252, 19496.743569
 124.145918, 19496.730225
 124.147585, 19496.716882
 124.149252, 19496.703539
 124.150918, 19496.690195
 124.152585, 19496.676850
 124.154252, 19496.663505
 124.155918, 19496.650160
 124.157585, 19496.636814
 124.159252, 19496.623469
 124.160918, 19496.610124
 124.162585, 19496.596778
 124.164252, 19496.583433
 124.165918, 19496.570087
 124.167585, 19496.556742
 124.169252, 19496.543395
 124.170918, 19496.530047
 124.172585, 19496.516700
 124.174252, 19496.503353
 124.175918, 19496.490005
 124.177585, 19496.476658
 124.179252, 19496.463310
 124.180918, 19496.449963
 124.182585, 19496.436615
 124.184252, 19496.423268
 124.185918, 19496.409919
 124.187585, 19496.396569
 124.189252, 19496.383220
 124.190918, 19496.369870
 124.192585, 19496.356521
 124.194252, 19496.343171
 124.195918, 19496.329822
 124.197585, 19496.316472
 124.199252, 19496.303123
 124.200918, 19496.289773
 124.202585, 19496.276422
 124.204252, 19496.263070
 124.205918, 19496.249719
 124.207585, 19496.236367
 124.209252, 19496.223015
 124.210918, 19496.209664
 124.212585, 19496.196312
 124.214252, 19496.182961
 124.215918, 19496.169609
 124.217585, 19496.156257
 124.219252, 19496.142904
 124.220918, 19496.129551
 124.222585, 19496.116197
 124.224252, 19496.102843
 124.225918, 19496.089490
 124.227585, 19496.076136
 124.229252, 19496.062782
 124.230918, 19496.049429
 124.232585, 19496.036075
 124.234252, 19496.022721
 124.235918, 19496.009366
 124.237585, 19495.996010
 124.239252, 19495.982654
 124.240918, 19495.969299
 124.242585, 19495.955943
 124.244252, 19495.942587
 124.245918, 19495.929232
 124.247585, 19495.915876
 124.249252, 19495.902520
 124.250918, 19495.889164
 124.252585, 19495.875807
 124.254252, 19495.862449
 124.255918, 19495.849091
 124.257585, 19495.835734
 124.259252, 19495.822376
 124.260918, 19495.809018
 124.262585, 19495.795660
 124.264252, 19495.782303
 124.265918, 19495.768945
 124.267585, 19495.755587
 124.269252, 19495.742228
 124.270918, 19495.728868
 124.272585, 19495.715508
 124.274252, 19495.702148
 124.275918, 19495.688788
 124.277585, 19495.675428
 124.279252, 19495.662068
 124.280918, 19495.648709
 124.282585, 19495.635349
 124.284252, 19495.621989
 124.285918, 19495.608627
 124.287585, 19495.595265
 124.289252, 19495.581903
 124.290918, 19495.568542
 124.292585, 19495.555180
 124.294252, 19495.541818
 124.295918, 19495.528456
 124.297585, 19495.515094
 124.299252, 19495.501732
 124.300918, 19495.488370
 124.302585, 19495.475007
 124.304252, 19495.461643
 124.305918, 19495.448279
 124.307585, 19495.434915
 124.309252, 19495.421551
 124.310918, 19495.408187
 124.312585, 19495.394823
 124.314252, 19495.381459
 124.315918, 19495.368095
 124.317585, 19495.354731
 124.319252, 19495.341366
 124.320918, 19495.328000
 124.322585, 19495.314634
 124.324252, 19495.301268
 124.325918, 19495.287902
 124.327585, 19495.274536
 124.329252, 19495.261170
 124.330918, 19495.247804
 124.332585, 19495.234438
 124.334252, 19495.221072
 124.335918, 19495.207704
 124.337585, 19495.194337
 124.339252, 19495.180969
 124.340918, 19495.167601
 124.342585, 19495.154233
 124.344252, 19495.140865
 124.345918, 19495.127497
 124.347585, 19495.114129
 124.349252, 19495.100761
 124.350918, 19495.087393
 124.352585, 19495.074023
 124.354252, 19495.060653
 124.355918, 19495.047283
 124.357585, 19495.033913
 124.359252, 19495.020543
 124.360918, 19495.007173
 124.362585, 19494.993803
 124.364252, 19494.980433
 124.365918, 19494.967063
 124.367585, 19494.953693
 124.369252, 19494.940321
 124.370918, 19494.926949
 124.372585, 19494.913577
 124.374252, 19494.900205
 124.375918, 19494.886833
 124.377585, 19494.873461
 124.379252, 19494.860089
 124.380918, 19494.846717
 124.382585, 19494.833345
 124.384252, 19494.819973
 124.385918, 19494.806599
 124.387585, 19494.793225
 124.389252, 19494.779851
 124.390918, 19494.766477
 124.392585, 19494.753103
 124.394252, 19494.739729
 124.395918, 19494.726355
 124.397585, 19494.712981
 124.399252, 19494.699607
 124.400918, 19494.686233
 124.402585, 19494.672857
 124.404252, 19494.659481
 124.405918, 19494.646105
 124.407585, 19494.632728
 124.409252, 19494.619352
 124.410918, 19494.605976
 124.412585, 19494.592600
 124.414252, 19494.579224
 124.415918, 19494.565848
 124.417585, 19494.552472
 124.419252, 19494.539094
 124.420918, 19494.525716
 124.422585, 19494.512338
 124.424252, 19494.498960
 124.425918, 19494.485581
 124.427585, 19494.472203
 124.429252, 19494.458825
 124.430918, 19494.445447
 124.432585, 19494.432069
 124.434252, 19494.418691
 124.435918, 19494.405311
 124.437585, 19494.391931
 124.439252, 19494.378550
 124.440918, 19494.365170
 124.442585, 19494.351790
 124.444252, 19494.338410
 124.445918, 19494.325030
 124.447585, 19494.311650
 124.449252, 19494.298269
 124.450918, 19494.284889
 124.452585, 19494.271507
 124.454252, 19494.258125
 124.455918, 19494.244743
 124.457585, 19494.231361
 124.459252, 19494.217978
 124.460918, 19494.204596
 124.462585, 19494.191214
 124.464252, 19494.177832
 124.465918, 19494.164450
 124.467585, 19494.151067
 124.469252, 19494.137683
 124.470918, 19494.124299
 124.472585, 19494.110915
 124.474252, 19494.097531
 124.475918, 19494.084147
 124.477585, 19494.070762
 124.479252, 19494.057378
 124.480918, 19494.043994
 124.482585, 19494.030610
 124.484252, 19494.017225
 124.485918, 19494.003839
 124.487585, 19493.990453
 124.489252, 19493.977067
 124.490918, 19493.963680
 124.492585, 19493.950294
 124.494252, 19493.936908
 124.495918, 19493.923522
 124.497585, 19493.910135
 124.499252, 19493.896749
 124.500918, 19493.883363
 124.502585, 19493.869975
 124.504252, 19493.856586
 124.505918, 19493.843198
 124.507585, 19493.829810
 124.509252, 19493.816422
 124.510918, 19493.803033
 124.512585, 19493.789645
 124.514252, 19493.776257
 124.515918, 19493.762868
 124.517585, 19493.749480
 124.519252, 19493.736090
 124.520918, 19493.722700
 124.522585, 19493.709309
 124.524252, 19493.695919
 124.525918, 19493.682529
 124.527585, 19493.669139
 124.529252, 19493.655748
 124.530918, 19493.642358
 124.532585, 19493.628968
 124.534252, 19493.615577
 124.535918, 19493.602185
 124.537585, 19493.588793
 124.539252, 19493.575401
 124.540918, 19493.562009
 124.542585, 19493.548616
 124.544252, 19493.535224
 124.545918, 19493.521832
 124.547585, 19493.508439
 124.549252, 19493.495047
 124.550918, 19493.481655
 124.552585, 19493.468261
 124.554252, 19493.454867
 124.555918, 19493.441472
 124.557585, 19493.428078
 124.559252, 19493.414684
 124.560918, 19493.401290
 124.562585, 19493.387895
 124.564252, 19493.374501
 124.565918, 19493.361107
 124.567585, 19493.347712
 124.569252, 19493.334317
 124.570918, 19493.320920
 124.572585, 19493.307524
 124.574252, 19493.294128
 124.575918, 19493.280731
 124.577585, 19493.267335
 124.579252, 19493.253939
 124.580918, 19493.240543
 124.582585, 19493.227146
 124.584252, 19493.213750
 124.585918, 19493.200352
 124.587585, 19493.186954
 124.589252, 19493.173556
 124.590918, 19493.160157
 124.592585, 19493.146759
 124.594252, 19493.133361
 124.595918, 19493.119962
 124.597585, 19493.106564
 124.599252, 19493.093166
 124.600918, 19493.079768
 124.602585, 19493.066368
 124.604252, 19493.052967
 124.605918, 19493.039567
 124.607585, 19493.026167
 124.609252, 19493.012767
 124.610918, 19492.999366
 124.612585, 19492.985966
 124.614252, 19492.972566
 124.615918, 19492.959165
 124.617585, 19492.945765
 124.619252, 19492.932363
 124.620918, 19492.918961
 124.622585, 19492.905559
 124.624252, 19492.892156
 124.625918, 19492.878754
 124.627585, 19492.865352
 124.629252, 19492.851950
 124.630918, 19492.838547
 124.632585, 19492.825145
 124.634252, 19492.811743
 124.635918, 19492.798339
 124.637585, 19492.784935
 124.639252, 19492.771530
 124.640918, 19492.758126
 124.642585, 19492.744722
 124.644252, 19492.731317
 124.645918, 19492.717913
 124.647585, 19492.704509
 124.649252, 19492.691105
 124.650918, 19492.677700
 124.652585, 19492.664294
 124.654252, 19492.650888
 124.655918, 19492.637482
 124.657585, 19492.624076
 124.659252, 19492.610669
 124.660918, 19492.597263
 124.662585, 19492.583857
 124.664252, 19492.570451
 124.665918, 19492.557044
 124.667585, 19492.543638
 124.669252, 19492.530230
 124.670918, 19492.516822
 124.672585, 19492.503414
 124.674252, 19492.490005
 124.675918, 19492.476597
 124.677585, 19492.463189
 124.679252, 19492.449781
 124.680918, 19492.436372
 124.682585, 19492.422964
 124.684252, 19492.409556
 124.685918, 19492.396146
 124.687585, 19492.382736
 124.689252, 19492.369325
 124.690918, 19492.355915
 124.692585, 19492.342505
 124.694252, 19492.329095
 124.695918, 19492.315684
 124.697585, 19492.302274
 124.699252, 19492.288864
 124.700918, 19492.275454
 124.702585, 19492.262042
 124.704252, 19492.248629
 124.705918, 19492.235217
 124.707585, 19492.221805
 124.709252, 19492.208393
 124.710918, 19492.194980
 124.712585, 19492.181568
 124.714252, 19492.168156
 124.715918, 19492.154744
 124.717585, 19492.141331
 124.719252, 19492.127917
 124.720918, 19492.114503
 124.722585, 19492.101089
 124.724252, 19492.087675
 124.725918, 19492.074260
 124.727585, 19492.060846
 124.729252, 19492.047432
 124.730918, 19492.034018
 124.732585, 19492.020604
 124.734252, 19492.007189
 124.735918, 19491.993773
 124.737585, 19491.980357
 124.739252, 19491.966941
 124.740918, 19491.953525
 124.742585, 19491.940109
 124.744252, 19491.926693
 124.745918, 19491.913276
 124.747585, 19491.899860
 124.749252, 19491.886444
 124.750918, 19491.873028
 124.752585, 19491.859610
 124.754252, 19491.846192
 124.755918, 19491.832774
 124.757585, 19491.819356
 124.759252, 19491.805937
 124.760918, 19491.792519
 124.762585, 19491.779101
 124.764252, 19491.765683
 124.765918, 19491.752265
 124.767585, 19491.738847
 124.769252, 19491.725427
 124.770918, 19491.712007
 124.772585, 19491.698587
 124.774252, 19491.685167
 124.775918, 19491.671747
 124.777585, 19491.658327
 124.779252, 19491.644906
 124.780918, 19491.631486
 124.782585, 19491.618066
 124.784252, 19491.604646
 124.785918, 19491.591224
 124.787585, 19491.577802
 124.789252, 19491.564380
 124.790918, 19491.550958
 124.792585, 19491.537536
 124.794252, 19491.524114
 124.795918, 19491.510692
 124.797585, 19491.497270
 124.799252, 19491.483848
 124.800918, 19491.470426
 124.802585, 19491.457002
 124.804252, 19491.443578
 124.805918, 19491.430154
 124.807585, 19491.416730
 124.809252, 19491.403306
 124.810918, 19491.389882
 124.812585, 19491.376458
 124.814252, 19491.363034
 124.815918, 19491.349610
 124.817585, 19491.336186
 124.819252, 19491.322761
 124.820918, 19491.309335
 124.822585, 19491.295909
 124.824252, 19491.282483
 124.825918, 19491.269057
 124.827585, 19491.255631
 124.829252, 19491.242205
 124.830918, 19491.228779
 124.832585, 19491.215353
 124.834252, 19491.201927
 124.835918, 19491.188499
 124.837585, 19491.175071
 124.839252, 19491.161643
 124.840918, 19491.148215
 124.842585, 19491.134787
 124.844252, 19491.121359
 124.845918, 19491.107931
 124.847585, 19491.094503
 124.849252, 19491.081075
 124.850918, 19491.067648
 124.852585, 19491.054218
 124.854252, 19491.040788
 124.855918, 19491.027358
 124.857585, 19491.013928
 124.859252, 19491.000498
 124.860918, 19490.987068
 124.862585, 19490.973638
 124.864252, 19490.960209
 124.865918, 19490.946779
 124.867585, 19490.933349
 124.869252, 19490.919917
 124.870918, 19490.906485
 124.872585, 19490.893053
 124.874252, 19490.879621
 124.875918, 19490.866190
 124.877585, 19490.852758
 124.879252, 19490.839326
 124.880918, 19490.825894
 124.882585, 19490.812462
 124.884252, 19490.799030
 124.885918, 19490.785597
 124.887585, 19490.772163
 124.889252, 19490.758729
 124.890918, 19490.745295
 124.892585, 19490.731861
 124.894252, 19490.718428
 124.895918, 19490.704994
 124.897585, 19490.691560
 124.899252, 19490.678126
 124.900918, 19490.664692
 124.902585, 19490.651257
 124.904252, 19490.637821
 124.905918, 19490.624385
 124.907585, 19490.610949
 124.909252, 19490.597513
 124.910918, 19490.584078
 124.912585, 19490.570642
 124.914252, 19490.557206
 124.915918, 19490.543770
 124.917585, 19490.530334
 124.919252, 19490.516897
 124.920918, 19490.503459
 124.922585, 19490.490021
 124.924252, 19490.476584
 124.925918, 19490.463146
 124.927585, 19490.449708
 124.929252, 19490.436270
 124.930918, 19490.422833
 124.932585, 19490.409395
 124.934252, 19490.395957
 124.935918, 19490.382518
 124.937585, 19490.369078
 124.939252, 19490.355638
 124.940918, 19490.342198
 124.942585, 19490.328759
 124.944252, 19490.315319
 124.945918, 19490.301879
 124.947585, 19490.288440
 124.949252, 19490.275000
 124.950918, 19490.261560
 124.952585, 19490.248119
 124.954252, 19490.234677
 124.955918, 19490.221236
 124.957585, 19490.207794
 124.959252, 19490.194352
 124.960918, 19490.180911
 124.962585, 19490.167469
 124.964252, 19490.154027
 124.965918, 19490.140586
 124.967585, 19490.127144
 124.969252, 19490.113701
 124.970918, 19490.100257
 124.972585, 19490.086814
 124.974252, 19490.073370
 124.975918, 19490.059927
 124.977585, 19490.046483
 124.979252, 19490.033039
 124.980918, 19490.019596
 124.982585, 19490.006152
 124.984252, 19489.992709
 124.985918, 19489.979264
 124.987585, 19489.965818
 124.989252, 19489.952373
 124.990918, 19489.938927
 124.992585, 19489.925482
 124.994252, 19489.912036
 124.995918, 19489.898591
 124.997585, 19489.885145
 124.999252, 19489.871700
 125.000918, 19489.858254
 125.002585, 19489.844807
 125.004252, 19489.831360
 125.005918, 19489.817912
 125.007585, 19489.804465
 125.009252, 19489.791017
 125.010918, 19489.777570
 125.012585, 19489.764123
 125.014252, 19489.750675
 125.015918, 19489.737228
 125.017585, 19489.723780
 125.019252, 19489.710331
 125.020918, 19489.696882
 125.022585, 19489.683433
 125.024252, 19489.669983
 125.025918, 19489.656534
 125.027585, 19489.643085
 125.029252, 19489.629635
 125.030918, 19489.616186
 125.032585, 19489.602737
 125.034252, 19489.589287
 125.035918, 19489.575836
 125.037585, 19489.562385
 125.039252, 19489.548934
 125.040918, 19489.535482
 125.042585, 19489.522031
 125.044252, 19489.508580
 125.045918, 19489.495129
 125.047585, 19489.481677
 125.049252, 19489.468226
 125.050918, 19489.454775
 125.052585, 19489.441322
 125.054252, 19489.427869
 125.055918, 19489.414415
 125.057585, 19489.400962
 125.059252, 19489.387509
 125.060918, 19489.374056
 125.062585, 19489.360603
 125.064252, 19489.347149
 125.065918, 19489.333696
 125.067585, 19489.320243
 125.069252, 19489.306788
 125.070918, 19489.293333
 125.072585, 19489.279878
 125.074252, 19489.266423
 125.075918, 19489.252968
 125.077585, 19489.239513
 125.079252, 19489.226057
 125.080918, 19489.212602
 125.082585, 19489.199147
 125.084252, 19489.185692
 125.085918, 19489.172235
 125.087585, 19489.158778
 125.089252, 19489.145321
 125.090918, 19489.131864
 125.092585, 19489.118407
 125.094252, 19489.104950
 125.095918, 19489.091493
 125.097585, 19489.078036
 125.099252, 19489.064579
 125.100918, 19489.051122
 125.102585, 19489.037663
 125.104252, 19489.024204
 125.105918, 19489.010745
 125.107585, 19488.997286
 125.109252, 19488.983827
 125.110918, 19488.970368
 125.112585, 19488.956909
 125.114252, 19488.943450
 125.115918, 19488.929991
 125.117585, 19488.916532
 125.119252, 19488.903072
 125.120918, 19488.889611
 125.122585, 19488.876150
 125.124252, 19488.862689
 125.125918, 19488.849228
 125.127585, 19488.835767
 125.129252, 19488.822306
 125.130918, 19488.808845
 125.132585, 19488.795384
 125.134252, 19488.781923
 125.135918, 19488.768461
 125.137585, 19488.754998
 125.139252, 19488.741535
 125.140918, 19488.728072
 125.142585, 19488.714610
 125.144252, 19488.701147
 125.145918, 19488.687684
 125.147585, 19488.674221
 125.149252, 19488.660758
 125.150918, 19488.647295
 125.152585, 19488.633831
 125.154252, 19488.620366
 125.155918, 19488.606901
 125.157585, 19488.593437
 125.159252, 19488.579972
 125.160918, 19488.566507
 125.162585, 19488.553042
 125.164252, 19488.539578
 125.165918, 19488.526113
 125.167585, 19488.512648
 125.169252, 19488.499182
 125.170918, 19488.485715
 125.172585, 19488.472248
 125.174252, 19488.458782
 125.175918, 19488.445315
 125.177585, 19488.431849
 125.179252, 19488.418382
 125.180918, 19488.404915
 125.182585, 19488.391449
 125.184252, 19488.377982
 125.185918, 19488.364514
 125.187585, 19488.351045
 125.189252, 19488.337577
 125.190918, 19488.324108
 125.192585, 19488.310640
 125.194252, 19488.297171
 125.195918, 19488.283703
 125.197585, 19488.270234
 125.199252, 19488.256766
 125.200918, 19488.243297
 125.202585, 19488.229827
 125.204252, 19488.216357
 125.205918, 19488.202886
 125.207585, 19488.189416
 125.209252, 19488.175945
 125.210918, 19488.162475
 125.212585, 19488.149005
 125.214252, 19488.135534
 125.215918, 19488.122064
 125.217585, 19488.108593
 125.219252, 19488.095121
 125.220918, 19488.081649
 125.222585, 19488.068177
 125.224252, 19488.054704
 125.225918, 19488.041232
 125.227585, 19488.027760
 125.229252, 19488.014288
 125.230918, 19488.000815
 125.232585, 19487.987343
 125.234252, 19487.973871
 125.235918, 19487.960397
 125.237585, 19487.946923
 125.239252, 19487.933448
 125.240918, 19487.919974
 125.242585, 19487.906500
 125.244252, 19487.893026
 125.245918, 19487.879552
 125.247585, 19487.866077
 125.249252, 19487.852603
 125.250918, 19487.839129
 125.252585, 19487.825653
 125.254252, 19487.812177
 125.255918, 19487.798701
 125.257585, 19487.785225
 125.259252, 19487.771749
 125.260918, 19487.758273
 125.262585, 19487.744797
 125.264252, 19487.731321
 125.265918, 19487.717845
 125.267585, 19487.704368
 125.269252, 19487.690891
 125.270918, 19487.677413
 125.272585, 19487.663935
 125.274252, 19487.650457
 125.275918, 19487.636979
 125.277585, 19487.623501
 125.279252, 19487.610023
 125.280918, 19487.596545
 125.282585, 19487.583067
 125.284252, 19487.569589
 125.285918, 19487.556109
 125.287585, 19487.542629
 125.289252, 19487.529150
 125.290918, 19487.515670
 125.292585, 19487.502190
 125.294252, 19487.488710
 125.295918, 19487.475230
 125.297585, 19487.461750
 125.299252, 19487.448270
 125.300918, 19487.434790
 125.302585, 19487.421309
 125.304252, 19487.407827
 125.305918, 19487.394345
 125.307585, 19487.380864
 125.309252, 19487.367382
 125.310918, 19487.353900
 125.312585, 19487.340418
 125.314252, 19487.326936
 125.315918, 19487.313455
 125.317585, 19487.299973
 125.319252, 19487.286489
 125.320918, 19487.273006
 125.322585, 19487.259522
 125.324252, 19487.246038
 125.325918, 19487.232555
 125.327585, 19487.219071
 125.329252, 19487.205587
 125.330918, 19487.192104
 125.332585, 19487.178620
 125.334252, 19487.165136
 125.335918, 19487.151651
 125.337585, 19487.138166
 125.339252, 19487.124680
 125.340918, 19487.111194
 125.342585, 19487.097709
 125.344252, 19487.084223
 125.345918, 19487.070738
 125.347585, 19487.057252
 125.349252, 19487.043767
 125.350918, 19487.030281
 125.352585, 19487.016794
 125.354252, 19487.003306
 125.355918, 19486.989819
 125.357585, 19486.976331
 125.359252, 19486.962844
 125.360918, 19486.949357
 125.362585, 19486.935869
 125.364252, 19486.922382
 125.365918, 19486.908894
 125.367585, 19486.895407
 125.369252, 19486.881918
 125.370918, 19486.868428
 125.372585, 19486.854939
 125.374252, 19486.841450
 125.375918, 19486.827960
 125.377585, 19486.814471
 125.379252, 19486.800982
 125.380918, 19486.787492
 125.382585, 19486.774003
 125.384252, 19486.760513
 125.385918, 19486.747023
 125.387585, 19486.733531
 125.389252, 19486.720040
 125.390918, 19486.706549
 125.392585, 19486.693058
 125.394252, 19486.679567
 125.395918, 19486.666075
 125.397585, 19486.652584
 125.399252, 19486.639093
 125.400918, 19486.625602
 125.402585, 19486.612109
 125.404252, 19486.598616
 125.405918, 19486.585123
 125.407585, 19486.571630
 125.409252, 19486.558137
 125.410918, 19486.544644
 125.412585, 19486.531151
 125.414252, 19486.517658
 125.415918, 19486.504165
 125.417585, 19486.490672
 125.419252, 19486.477177
 125.420918, 19486.463682
 125.422585, 19486.450187
 125.424252, 19486.436692
 125.425918, 19486.423197
 125.427585, 19486.409703
 125.429252, 19486.396208
 125.430918, 19486.382713
 125.432585, 19486.369218
 125.434252, 19486.355723
 125.435918, 19486.342226
 125.437585, 19486.328730
 125.439252, 19486.315233
 125.440918, 19486.301736
 125.442585, 19486.288239
 125.444252, 19486.274743
 125.445918, 19486.261246
 125.447585, 19486.247749
 125.449252, 19486.234252
 125.450918, 19486.220756
 125.452585, 19486.207257
 125.454252, 19486.193759
 125.455918, 19486.180260
 125.457585, 19486.166761
 125.459252, 19486.153263
 125.460918, 19486.139764
 125.462585, 19486.126266
 125.464252, 19486.112767
 125.465918, 19486.099268
 125.467585, 19486.085770
 125.469252, 19486.072270
 125.470918, 19486.058769
 125.472585, 19486.045269
 125.474252, 19486.031768
 125.475918, 19486.018268
 125.477585, 19486.004767
 125.479252, 19485.991267
 125.480918, 19485.977766
 125.482585, 19485.964266
 125.484252, 19485.950765
 125.485918, 19485.937263
 125.487585, 19485.923761
 125.489252, 19485.910258
 125.490918, 19485.896756
 125.492585, 19485.883254
 125.494252, 19485.869751
 125.495918, 19485.856249
 125.497585, 19485.842747
 125.499252, 19485.829244
 125.500918, 19485.815742
 125.502585, 19485.802238
 125.504252, 19485.788734
 125.505918, 19485.775230
 125.507585, 19485.761725
 125.509252, 19485.748221
 125.510918, 19485.734717
 125.512585, 19485.721213
 125.514252, 19485.707709
 125.515918, 19485.694204
 125.517585, 19485.680700
 125.519252, 19485.667194
 125.520918, 19485.653688
 125.522585, 19485.640182
 125.524252, 19485.626676
 125.525918, 19485.613170
 125.527585, 19485.599664
 125.529252, 19485.586158
 125.530918, 19485.572652
 125.532585, 19485.559146
 125.534252, 19485.545640
 125.535918, 19485.532132
 125.537585, 19485.518624
 125.539252, 19485.505116
 125.540918, 19485.491608
 125.542585, 19485.478101
 125.544252, 19485.464593
 125.545918, 19485.451085
 125.547585, 19485.437577
 125.549252, 19485.424069
 125.550918, 19485.410561
 125.552585, 19485.397051
 125.554252, 19485.383542
 125.555918, 19485.370032
 125.557585, 19485.356522
 125.559252, 19485.343012
 125.560918, 19485.329503
 125.562585, 19485.315993
 125.564252, 19485.302483
 125.565918, 19485.288973
 125.567585, 19485.275463
 125.569252, 19485.261952
 125.570918, 19485.248440
 125.572585, 19485.234929
 125.574252, 19485.221417
 125.575918, 19485.207905
 125.577585, 19485.194394
 125.579252, 19485.180882
 125.580918, 19485.167371
 125.582585, 19485.153859
 125.584252, 19485.140347
 125.585918, 19485.126834
 125.587585, 19485.113321
 125.589252, 19485.099807
 125.590918, 19485.086294
 125.592585, 19485.072780
 125.594252, 19485.059267
 125.595918, 19485.045753
 125.597585, 19485.032240
 125.599252, 19485.018726
 125.600918, 19485.005213
 125.602585, 19484.991698
 125.604252, 19484.978182
 125.605918, 19484.964667
 125.607585, 19484.951152
 125.609252, 19484.937636
 125.610918, 19484.924121
 125.612585, 19484.910606
 125.614252, 19484.897091
 125.615918, 19484.883575
 125.617585, 19484.870060
 125.619252, 19484.856543
 125.620918, 19484.843026
 125.622585, 19484.829509
 125.624252, 19484.815992
 125.625918, 19484.802475
 125.627585, 19484.788958
 125.629252, 19484.775440
 125.630918, 19484.761923
 125.632585, 19484.748406
 125.634252, 19484.734889
 125.635918, 19484.721370
 125.637585, 19484.707851
 125.639252, 19484.694333
 125.640918, 19484.680814
 125.642585, 19484.667295
 125.644252, 19484.653776
 125.645918, 19484.640257
 125.647585, 19484.626738
 125.649252, 19484.613219
 125.650918, 19484.599700
 125.652585, 19484.586179
 125.654252, 19484.572659
 125.655918, 19484.559138
 125.657585, 19484.545617
 125.659252, 19484.532096
 125.660918, 19484.518576
 125.662585, 19484.505055
 125.664252, 19484.491534
 125.665918, 19484.478013
 125.667585, 19484.464493
 125.669252, 19484.450970
 125.670918, 19484.437448
 125.672585, 19484.423925
 125.674252, 19484.410403
 125.675918, 19484.396880
 125.677585, 19484.383357
 125.679252, 19484.369835
 125.680918, 19484.356312
 125.682585, 19484.342790
 125.684252, 19484.329267
 125.685918, 19484.315743
 125.687585, 19484.302218
 125.689252, 19484.288694
 125.690918, 19484.275170
 125.692585, 19484.261645
 125.694252, 19484.248121
 125.695918, 19484.234596
 125.697585, 19484.221072
 125.699252, 19484.207548
 125.700918, 19484.194023
 125.702585, 19484.180497
 125.704252, 19484.166971
 125.705918, 19484.153445
 125.707585, 19484.139918
 125.709252, 19484.126392
 125.710918, 19484.112866
 125.712585, 19484.099340
 125.714252, 19484.085813
 125.715918, 19484.072287
 125.717585, 19484.058761
 125.719252, 19484.045233
 125.720918, 19484.031705
 125.722585, 19484.018177
 125.724252, 19484.004649
 125.725918, 19483.991121
 125.727585, 19483.977593
 125.729252, 19483.964065
 125.730918, 19483.950537
 125.732585, 19483.937009
 125.734252, 19483.923480
 125.735918, 19483.909951
 125.737585, 19483.896421
 125.739252, 19483.882891
 125.740918, 19483.869361
 125.742585, 19483.855831
 125.744252, 19483.842301
 125.745918, 19483.828771
 125.747585, 19483.815241
 125.749252, 19483.801712
 125.750918, 19483.788182
 125.752585, 19483.774650
 125.754252, 19483.761119
 125.755918, 19483.747587
 125.757585, 19483.734055
 125.759252, 19483.720523
 125.760918, 19483.706992
 125.762585, 19483.693460
 125.764252, 19483.679928
 125.765918, 19483.666396
 125.767585, 19483.652865
 125.769252, 19483.639331
 125.770918, 19483.625798
 125.772585, 19483.612264
 125.774252, 19483.598731
 125.775918, 19483.585197
 125.777585, 19483.571664
 125.779252, 19483.558130
 125.780918, 19483.544597
 125.782585, 19483.531063
 125.784252, 19483.517529
 125.785918, 19483.503994
 125.787585, 19483.490459
 125.789252, 19483.476924
 125.790918, 19483.463388
 125.792585, 19483.449853
 125.794252, 19483.436317
 125.795918, 19483.422782
 125.797585, 19483.409247
 125.799252, 19483.395711
 125.800918, 19483.382176
 125.802585, 19483.368639
 125.804252, 19483.355102
 125.805918, 19483.341565
 125.807585, 19483.328027
 125.809252, 19483.314490
 125.810918, 19483.300953
 125.812585, 19483.287416
 125.814252, 19483.273879
 125.815918, 19483.260341
 125.817585, 19483.246804
 125.819252, 19483.233266
 125.820918, 19483.219727
 125.822585, 19483.206188
 125.824252, 19483.192649
 125.825918, 19483.179110
 125.827585, 19483.165571
 125.829252, 19483.152032
 125.830918, 19483.138493
 125.832585, 19483.124954
 125.834252, 19483.111415
 125.835918, 19483.097874
 125.837585, 19483.084333
 125.839252, 19483.070793
 125.840918, 19483.057252
 125.842585, 19483.043711
 125.844252, 19483.030170
 125.845918, 19483.016630
 125.847585, 19483.003089
 125.849252, 19482.989548
 125.850918, 19482.976007
 125.852585, 19482.962465
 125.854252, 19482.948923
 125.855918, 19482.935380
 125.857585, 19482.921837
 125.859252, 19482.908295
 125.860918, 19482.894752
 125.862585, 19482.881210
 125.864252, 19482.867667
 125.865918, 19482.854125
 125.867585, 19482.840582
 125.869252, 19482.827038
 125.870918, 19482.813494
 125.872585, 19482.799949
 125.874252, 19482.786405
 125.875918, 19482.772861
 125.877585, 19482.759316
 125.879252, 19482.745772
 125.880918, 19482.732228
 125.882585, 19482.718683
 125.884252, 19482.705139
 125.885918, 19482.691593
 125.887585, 19482.678047
 125.889252, 19482.664501
 125.890918, 19482.650955
 125.892585, 19482.637409
 125.894252, 19482.623863
 125.895918, 19482.610317
 125.897585, 19482.596770
 125.899252, 19482.583224
 125.900918, 19482.569678
 125.902585, 19482.556130
 125.904252, 19482.542583
 125.905918, 19482.529035
 125.907585, 19482.515487
 125.909252, 19482.501939
 125.910918, 19482.488391
 125.912585, 19482.474843
 125.914252, 19482.461295
 125.915918, 19482.447747
 125.917585, 19482.434199
 125.919252, 19482.420650
 125.920918, 19482.407100
 125.922585, 19482.393550
 125.924252, 19482.380001
 125.925918, 19482.366451
 125.927585, 19482.352901
 125.929252, 19482.339351
 125.930918, 19482.325802
 125.932585, 19482.312252
 125.934252, 19482.298702
 125.935918, 19482.285151
 125.937585, 19482.271599
 125.939252, 19482.258048
 125.940918, 19482.244496
 125.942585, 19482.230945
 125.944252, 19482.217393
 125.945918, 19482.203842
 125.947585, 19482.190290
 125.949252, 19482.176739
 125.950918, 19482.163187
 125.952585, 19482.149634
 125.954252, 19482.136081
 125.955918, 19482.122528
 125.957585, 19482.108974
 125.959252, 19482.095421
 125.960918, 19482.081868
 125.962585, 19482.068314
 125.964252, 19482.054761
 125.965918, 19482.041208
 125.967585, 19482.027655
 125.969252, 19482.014100
 125.970918, 19482.000545
 125.972585, 19481.986990
 125.974252, 19481.973434
 125.975918, 19481.959879
 125.977585, 19481.946324
 125.979252, 19481.932769
 125.980918, 19481.919214
 125.982585, 19481.905659
 125.984252, 19481.892104
 125.985918, 19481.878547
 125.987585, 19481.864990
 125.989252, 19481.851434
 125.990918, 19481.837877
 125.992585, 19481.824320
 125.994252, 19481.810763
 125.995918, 19481.797206
 125.997585, 19481.783649
 125.999252, 19481.770092
 126.000918, 19481.756535
 126.002585, 19481.742977
 126.004252, 19481.729418
 126.005918, 19481.715860
 126.007585, 19481.702301
 126.009252, 19481.688742
 126.010918, 19481.675184
 126.012585, 19481.661625
 126.014252, 19481.648066
 126.015918, 19481.634507
 126.017585, 19481.620949
 126.019252, 19481.607389
 126.020918, 19481.593828
 126.022585, 19481.580268
 126.024252, 19481.566707
 126.025918, 19481.553147
 126.027585, 19481.539586
 126.029252, 19481.526026
 126.030918, 19481.512465
 126.032585, 19481.498905
 126.034252, 19481.485344
 126.035918, 19481.471783
 126.037585, 19481.458220
 126.039252, 19481.444658
 126.040918, 19481.431096
 126.042585, 19481.417534
 126.044252, 19481.403971
 126.045918, 19481.390409
 126.047585, 19481.376847
 126.049252, 19481.363285
 126.050918, 19481.349723
 126.052585, 19481.336159
 126.054252, 19481.322595
 126.055918, 19481.309031
 126.057585, 19481.295467
 126.059252, 19481.281903
 126.060918, 19481.268339
 126.062585, 19481.254775
 126.064252, 19481.241211
 126.065918, 19481.227647
 126.067585, 19481.214083
 126.069252, 19481.200518
 126.070918, 19481.186952
 126.072585, 19481.173387
 126.074252, 19481.159821
 126.075918, 19481.146255
 126.077585, 19481.132689
 126.079252, 19481.119124
 126.080918, 19481.105558
 126.082585, 19481.091992
 126.084252, 19481.078427
 126.085918, 19481.064860
 126.087585, 19481.051293
 126.088545, 19481.043477
 126.090212, 19481.029910
 126.091879, 19481.016342
 126.093545, 19481.002774
 126.095212, 19480.989207
 126.096879, 19480.975639
 126.098545, 19480.962071
 126.100212, 19480.948504
 126.101879, 19480.938103
 126.103545, 19480.932178
 126.105212, 19480.926252
 126.106879, 19480.920327
 126.108545, 19480.914402
 126.110212, 19480.908477
 126.111879, 19480.902552
 126.113545, 19480.896627
 126.115212, 19480.890702
 126.116879, 19480.884777
 126.118545, 19480.878857
 126.120212, 19480.872944
 126.121879, 19480.867032
 126.123545, 19480.861120
 126.125212, 19480.855208
 126.126879, 19480.849295
 126.128545, 19480.843383
 126.130212, 19480.837471
 126.131879, 19480.831558
 126.133545, 19480.825646
 126.135212, 19480.819738
 126.136879, 19480.813837
 126.138545, 19480.807936
 126.140212, 19480.802035
 126.141879, 19480.796134
 126.143110, 19480.791773
