Time, Aircraft mass
   0.000000, 20805.709952
   0.001667, 20805.679195
   0.003333, 20805.648392
   0.005000, 20805.617588
   0.006667, 20805.586784
   0.008333, 20805.555979
   0.010000, 20805.525175
   0.011667, 20805.494371
   0.013333, 20805.463567
   0.015000, 20805.432762
   0.016667, 20805.401958
   0.018333, 20805.371154
   0.020000, 20805.340328
   0.021667, 20805.309499
   0.023333, 20805.278670
   0.025000, 20805.247841
   0.026667, 20805.217012
   0.028333, 20805.186183
   0.030000, 20805.155354
   0.031667, 20805.124526
   0.033333, 20805.093697
   0.035000, 20805.062868
   0.036667, 20805.032023
   0.038333, 20805.001176
   0.040000, 20804.970330
   0.041667, 20804.939483
   0.043333, 20804.908636
   0.045000, 20804.877790
   0.046667, 20804.846943
   0.048333, 20804.816096
   0.050000, 20804.785249
   0.051667, 20804.754403
   0.053333, 20804.723546
   0.055000, 20804.692688
   0.056667, 20804.661830
   0.058333, 20804.630971
   0.060000, 20804.600113
   0.061667, 20804.569255
   0.063333, 20804.538397
   0.065000, 20804.507539
   0.066667, 20804.476681
   0.068333, 20804.445823
   0.070000, 20804.414960
   0.071667, 20804.384097
   0.073333, 20804.353234
   0.075000, 20804.322370
   0.076667, 20804.291507
   0.078333, 20804.260644
   0.080000, 20804.229781
   0.081667, 20804.198918
   0.083333, 20804.168054
   0.085000, 20804.137191
   0.086667, 20804.106327
   0.088333, 20804.075463
   0.090000, 20804.044599
   0.091667, 20804.013735
   0.093333, 20803.982871
   0.095000, 20803.952007
   0.096667, 20803.921143
   0.098333, 20803.890279
   0.100000, 20803.859414
   0.101667, 20803.828550
   0.103333, 20803.797658
   0.105000, 20803.766763
   0.106667, 20803.735868
   0.108333, 20803.704972
   0.110000, 20803.674077
   0.111667, 20803.643181
   0.113333, 20803.612286
   0.115000, 20803.581390
   0.116667, 20803.550495
   0.118333, 20803.519599
   0.120000, 20803.488679
   0.121667, 20803.457756
   0.123333, 20803.426833
   0.125000, 20803.395909
   0.126667, 20803.364986
   0.128333, 20803.334063
   0.130000, 20803.303140
   0.131667, 20803.272216
   0.133333, 20803.241293
   0.135000, 20803.210370
   0.136667, 20803.179434
   0.138333, 20803.148496
   0.140000, 20803.117558
   0.141667, 20803.086621
   0.143333, 20803.055683
   0.145000, 20803.024745
   0.146667, 20802.993808
   0.148333, 20802.962870
   0.150000, 20802.931932
   0.151667, 20802.900995
   0.153333, 20802.870055
   0.155000, 20802.839116
   0.156667, 20802.808177
   0.158333, 20802.777237
   0.160000, 20802.746298
   0.161667, 20802.715359
   0.163333, 20802.684419
   0.165000, 20802.653480
   0.166667, 20802.622541
   0.168333, 20802.591601
   0.170000, 20802.560671
   0.171667, 20802.529742
   0.173333, 20802.498813
   0.175000, 20802.467884
   0.176667, 20802.436955
   0.178333, 20802.406026
   0.180000, 20802.375097
   0.181667, 20802.344168
   0.183333, 20802.313239
   0.185000, 20802.282310
   0.186667, 20802.251400
   0.188333, 20802.220492
   0.190000, 20802.189585
   0.191667, 20802.158677
   0.193333, 20802.127770
   0.195000, 20802.096862
   0.196667, 20802.065954
   0.198333, 20802.035047
   0.200000, 20802.004139
   0.201667, 20801.973232
   0.203333, 20801.942303
   0.205000, 20801.911372
   0.206667, 20801.880440
   0.208333, 20801.849509
   0.210000, 20801.818578
   0.211667, 20801.787646
   0.213333, 20801.756715
   0.215000, 20801.725783
   0.216667, 20801.694852
   0.218333, 20801.663921
   0.220000, 20801.632932
   0.221667, 20801.601935
   0.223333, 20801.570939
   0.225000, 20801.539942
   0.226667, 20801.508946
   0.228333, 20801.477950
   0.230000, 20801.446953
   0.231667, 20801.415957
   0.233333, 20801.384961
   0.235000, 20801.353964
   0.236667, 20801.322934
   0.238333, 20801.291899
   0.240000, 20801.260864
   0.241667, 20801.229829
   0.243333, 20801.198794
   0.245000, 20801.167759
   0.246667, 20801.136724
   0.248333, 20801.105689
   0.250000, 20801.074654
   0.251667, 20801.043619
   0.253333, 20801.012571
   0.255000, 20800.981522
   0.256667, 20800.950473
   0.258333, 20800.919423
   0.260000, 20800.888374
   0.261667, 20800.857325
   0.263333, 20800.826276
   0.265000, 20800.795226
   0.266667, 20800.764177
   0.268333, 20800.733128
   0.270000, 20800.702086
   0.271667, 20800.671045
   0.273333, 20800.640004
   0.275000, 20800.608963
   0.276667, 20800.577922
   0.278333, 20800.546881
   0.280000, 20800.515840
   0.281667, 20800.484799
   0.283333, 20800.453758
   0.285000, 20800.422717
   0.286667, 20800.391702
   0.288333, 20800.360690
   0.290000, 20800.329678
   0.291667, 20800.298666
   0.293333, 20800.267653
   0.295000, 20800.236641
   0.296667, 20800.205629
   0.298333, 20800.174617
   0.300000, 20800.143605
   0.301667, 20800.112593
   0.303333, 20800.081623
   0.305000, 20800.050658
   0.306667, 20800.019693
   0.308333, 20799.988729
   0.310000, 20799.957764
   0.311667, 20799.926799
   0.313333, 20799.895834
   0.315000, 20799.864870
   0.316667, 20799.833905
   0.318333, 20799.802940
   0.320000, 20799.772028
   0.321667, 20799.741122
   0.323333, 20799.710215
   0.325000, 20799.679309
   0.326667, 20799.648403
   0.328333, 20799.617497
   0.330000, 20799.586591
   0.331667, 20799.555685
   0.333333, 20799.524778
   0.335000, 20799.493872
   0.336667, 20799.462928
   0.338333, 20799.431978
   0.340000, 20799.401028
   0.341667, 20799.370079
   0.343333, 20799.339129
   0.345000, 20799.308180
   0.346667, 20799.277230
   0.348333, 20799.246281
   0.350000, 20799.215331
   0.351667, 20799.184382
   0.353333, 20799.153404
   0.355000, 20799.122423
   0.355811, 20799.107342
   0.357478, 20799.076343
   0.359145, 20799.045344
   0.360811, 20799.014345
   0.362478, 20798.983346
   0.364145, 20798.952347
   0.365811, 20798.921348
   0.367478, 20798.890349
   0.369145, 20798.859343
   0.370811, 20798.828324
   0.372478, 20798.797305
   0.374145, 20798.766287
   0.375811, 20798.735268
   0.377478, 20798.704249
   0.379145, 20798.673230
   0.380811, 20798.642211
   0.382478, 20798.611192
   0.384145, 20798.580173
   0.385811, 20798.549152
   0.387478, 20798.518128
   0.389145, 20798.487104
   0.390811, 20798.456079
   0.392478, 20798.425055
   0.394145, 20798.394030
   0.395811, 20798.363006
   0.397478, 20798.331981
   0.399145, 20798.300957
   0.400811, 20798.269933
   0.402478, 20798.238912
   0.404145, 20798.207898
   0.405811, 20798.176884
   0.407478, 20798.145869
   0.409145, 20798.114855
   0.410811, 20798.083841
   0.412478, 20798.052827
   0.414145, 20798.021813
   0.415811, 20797.990799
   0.417478, 20797.959784
   0.418518, 20797.940425
   0.420185, 20797.909430
   0.421852, 20797.878434
   0.423518, 20797.847439
   0.425185, 20797.816443
   0.426852, 20797.785448
   0.428518, 20797.754452
   0.430185, 20797.723457
   0.431852, 20797.692462
   0.433518, 20797.661466
   0.435185, 20797.630471
   0.436852, 20797.599485
   0.438518, 20797.568500
   0.440185, 20797.537515
   0.441852, 20797.506529
   0.443518, 20797.475544
   0.445185, 20797.444563
   0.446852, 20797.413581
   0.448518, 20797.382600
   0.450185, 20797.351619
   0.451852, 20797.320638
   0.453518, 20797.289659
   0.455185, 20797.258680
   0.456852, 20797.227700
   0.458518, 20797.196721
   0.460185, 20797.165742
   0.460185, 20797.165742
   1.655097, 20776.744018
   2.874522, 20756.211354
   4.133302, 20735.464464
   5.482632, 20714.053459
   6.969219, 20691.564939
   8.614908, 20667.735565
  10.453102, 20642.188749
  12.542548, 20614.362135
  15.027550, 20582.875297
  15.027550, 20582.875297
  15.858972, 20571.971168
  16.690395, 20561.068838
  17.521817, 20550.168305
  18.353239, 20539.269572
  19.184662, 20528.372636
  20.016084, 20517.477499
  20.847506, 20506.584160
  21.678929, 20495.692619
  22.510351, 20484.802877
  23.341773, 20473.914933
  24.173196, 20463.028787
  25.004618, 20452.144440
  25.836040, 20441.261891
  26.667463, 20430.381141
  27.498885, 20419.502188
  28.330307, 20408.625035
  29.161730, 20397.749679
  29.993152, 20386.876122
  30.824574, 20376.004363
  31.655997, 20365.134403
  32.487419, 20354.266241
  33.318841, 20343.399878
  34.150264, 20332.535313
  34.981686, 20321.672546
  35.813108, 20310.811578
  36.644531, 20299.952408
  37.475953, 20289.095037
  38.307375, 20278.239464
  39.138798, 20267.385689
  39.138798, 20267.385689
  40.298666, 20258.476705
  41.461312, 20249.699007
  42.622520, 20240.996918
  43.778533, 20232.475177
  44.927113, 20224.126834
  46.063949, 20215.949182
  47.184952, 20208.068851
  48.302137, 20200.358654
  49.411806, 20192.765873
  49.411806, 20192.765873
  49.990878, 20182.944517
  50.575571, 20173.103133
  51.165723, 20163.247768
  51.764106, 20153.357409
  52.381498, 20143.336732
  53.027216, 20133.106598
  53.704269, 20122.643601
  54.414975, 20111.921350
  55.161144, 20100.913307
  55.161144, 20100.913307
  57.014269, 20083.358206
  58.868203, 20065.809875
  60.722949, 20048.268326
  62.578505, 20030.733570
  64.434873, 20013.205620
  66.292054, 19995.684485
  68.150049, 19978.170179
  70.008858, 19960.662712
  71.868482, 19943.162095
  71.868482, 19943.162095
  72.514813, 19937.853064
  73.150956, 19932.610205
  73.789636, 19927.917266
  74.430995, 19923.212917
  75.075175, 19918.511095
  75.721967, 19913.806275
  76.371231, 19909.081429
  77.022507, 19904.339998
  77.674878, 19899.592721
  77.674878, 19899.592721
  82.674878, 19854.182215
  87.674878, 19808.860418
  92.674878, 19763.627237
  97.674878, 19718.481732
 102.674878, 19673.421575
 107.674878, 19628.446675
 112.674878, 19583.556944
 117.674878, 19538.752292
 122.674878, 19494.032628
 122.674878, 19494.032628
 122.676545, 19494.017658
 122.678211, 19494.002688
 122.679878, 19493.987717
 122.681545, 19493.972746
 122.683211, 19493.957774
 122.684878, 19493.942802
 122.686545, 19493.927830
 122.688211, 19493.912858
 122.689878, 19493.897886
 122.691545, 19493.882914
 122.693211, 19493.867942
 122.694878, 19493.852970
 122.696545, 19493.837998
 122.698211, 19493.823024
 122.699878, 19493.808049
 122.701545, 19493.793074
 122.703211, 19493.778099
 122.704878, 19493.763124
 122.706545, 19493.748149
 122.708211, 19493.733174
 122.709878, 19493.718199
 122.711545, 19493.703224
 122.713211, 19493.688249
 122.714878, 19493.673270
 122.716545, 19493.658292
 122.718211, 19493.643313
 122.719878, 19493.628334
 122.721545, 19493.613356
 122.723211, 19493.598377
 122.724878, 19493.583398
 122.726545, 19493.568419
 122.728211, 19493.553441
 122.729878, 19493.538462
 122.731545, 19493.523480
 122.733211, 19493.508497
 122.734878, 19493.493513
 122.736545, 19493.478530
 122.738211, 19493.463547
 122.739878, 19493.448564
 122.741545, 19493.433581
 122.743211, 19493.418598
 122.744878, 19493.403615
 122.746545, 19493.388632
 122.748211, 19493.373645
 122.749878, 19493.358657
 122.751545, 19493.343669
 122.753211, 19493.328681
 122.754878, 19493.313693
 122.756545, 19493.298705
 122.758211, 19493.283717
 122.759878, 19493.268729
 122.761545, 19493.253741
 122.763211, 19493.238753
 122.764878, 19493.223760
 122.766545, 19493.208766
 122.768211, 19493.193773
 122.769878, 19493.178779
 122.771545, 19493.163786
 122.773211, 19493.148792
 122.774878, 19493.133798
 122.776545, 19493.118805
 122.778211, 19493.103811
 122.779878, 19493.088818
 122.781545, 19493.073819
 122.783211, 19493.058819
 122.784878, 19493.043819
 122.786545, 19493.028819
 122.788211, 19493.013820
 122.789878, 19492.998820
 122.791545, 19492.983820
 122.793211, 19492.968820
 122.794878, 19492.953821
 122.796545, 19492.938821
 122.798211, 19492.923815
 122.799878, 19492.908809
 122.801545, 19492.893802
 122.803211, 19492.878796
 122.804878, 19492.863789
 122.806545, 19492.848783
 122.808211, 19492.833776
 122.809878, 19492.818770
 122.811545, 19492.803763
 122.813211, 19492.788757
 122.814878, 19492.773744
 122.816545, 19492.758730
 122.818211, 19492.743717
 122.819878, 19492.728703
 122.821545, 19492.713689
 122.823211, 19492.698675
 122.824878, 19492.683662
 122.826545, 19492.668648
 122.828211, 19492.653634
 122.829878, 19492.638620
 122.831545, 19492.623600
 122.833211, 19492.608579
 122.834878, 19492.593557
 122.836545, 19492.578536
 122.838211, 19492.563514
 122.839878, 19492.548493
 122.841545, 19492.533471
 122.843211, 19492.518450
 122.844878, 19492.503428
 122.846545, 19492.488407
 122.848211, 19492.473378
 122.849878, 19492.458349
 122.851545, 19492.443319
 122.853211, 19492.428289
 122.854878, 19492.413259
 122.856545, 19492.398230
 122.858211, 19492.383200
 122.859878, 19492.368170
 122.861545, 19492.353140
 122.863211, 19492.338110
 122.864878, 19492.323073
 122.866545, 19492.308034
 122.868211, 19492.292996
 122.869878, 19492.277957
 122.871545, 19492.262919
 122.873211, 19492.247880
 122.874878, 19492.232841
 122.876545, 19492.217803
 122.878211, 19492.202764
 122.879878, 19492.187725
 122.881545, 19492.172679
 122.883211, 19492.157631
 122.884878, 19492.142583
 122.886545, 19492.127535
 122.888211, 19492.112487
 122.889878, 19492.097439
 122.891545, 19492.082391
 122.893211, 19492.067343
 122.894878, 19492.052296
 122.896545, 19492.037248
 122.898211, 19492.022192
 122.899878, 19492.007134
 122.901545, 19491.992076
 122.903211, 19491.977019
 122.904878, 19491.961961
 122.906545, 19491.946904
 122.908211, 19491.931846
 122.909878, 19491.916789
 122.911545, 19491.901731
 122.913211, 19491.886673
 122.914878, 19491.871607
 122.916545, 19491.856540
 122.918211, 19491.841472
 122.919878, 19491.826404
 122.921545, 19491.811337
 122.923211, 19491.796269
 122.924878, 19491.781201
 122.926545, 19491.766134
 122.928211, 19491.751066
 122.929878, 19491.735998
 122.931545, 19491.720922
 122.933211, 19491.705844
 122.934878, 19491.690766
 122.936545, 19491.675688
 122.938211, 19491.660610
 122.939878, 19491.645532
 122.941545, 19491.630454
 122.943211, 19491.615375
 122.944878, 19491.600297
 122.946545, 19491.585219
 122.948211, 19491.570132
 122.949878, 19491.555043
 122.951545, 19491.539954
 122.953211, 19491.524865
 122.954878, 19491.509776
 122.956545, 19491.494687
 122.958211, 19491.479598
 122.959878, 19491.464509
 122.961545, 19491.449420
 122.963211, 19491.434332
 122.964878, 19491.419233
 122.966545, 19491.404133
 122.968211, 19491.389033
 122.969878, 19491.373933
 122.971545, 19491.358832
 122.973211, 19491.343732
 122.974878, 19491.328632
 122.976545, 19491.313532
 122.978211, 19491.298432
 122.979878, 19491.283331
 122.981545, 19491.268221
 122.983211, 19491.253110
 122.984878, 19491.237998
 122.986545, 19491.222886
 122.988211, 19491.207774
 122.989878, 19491.192663
 122.991545, 19491.177551
 122.993211, 19491.162439
 122.994878, 19491.147327
 122.996545, 19491.132215
 122.998211, 19491.117094
 122.999878, 19491.101970
 123.001545, 19491.086846
 123.003211, 19491.071723
 123.004878, 19491.056599
 123.006545, 19491.041475
 123.008211, 19491.026352
 123.009878, 19491.011228
 123.011545, 19490.996104
 123.013211, 19490.980981
 123.014878, 19490.965847
 123.016545, 19490.950711
 123.018211, 19490.935575
 123.019878, 19490.920440
 123.021545, 19490.905304
 123.023211, 19490.890168
 123.024878, 19490.875032
 123.026545, 19490.859897
 123.028211, 19490.844761
 123.029878, 19490.829625
 123.031545, 19490.814479
 123.033211, 19490.799331
 123.034878, 19490.784183
 123.036545, 19490.769035
 123.038211, 19490.753887
 123.039878, 19490.738739
 123.041545, 19490.723591
 123.043211, 19490.708443
 123.044878, 19490.693295
 123.046545, 19490.678147
 123.048211, 19490.662988
 123.049878, 19490.647828
 123.051545, 19490.632667
 123.053211, 19490.617507
 123.054878, 19490.602346
 123.056545, 19490.587186
 123.058211, 19490.572025
 123.059878, 19490.556865
 123.061545, 19490.541704
 123.063211, 19490.526544
 123.064878, 19490.511373
 123.066545, 19490.496199
 123.068211, 19490.481026
 123.069878, 19490.465853
 123.071545, 19490.450680
 123.073211, 19490.435507
 123.074878, 19490.420333
 123.076545, 19490.405160
 123.078211, 19490.389987
 123.079878, 19490.374814
 123.081545, 19490.359630
 123.083211, 19490.344444
 123.084878, 19490.329258
 123.086545, 19490.314072
 123.088211, 19490.298886
 123.089878, 19490.283700
 123.091545, 19490.268514
 123.093211, 19490.253328
 123.094878, 19490.238142
 123.096545, 19490.222956
 123.098211, 19490.207759
 123.099878, 19490.192560
 123.101545, 19490.177361
 123.103211, 19490.162162
 123.104878, 19490.146963
 123.106545, 19490.131764
 123.108211, 19490.116565
 123.109878, 19490.101366
 123.111545, 19490.086167
 123.113211, 19490.070968
 123.114878, 19490.055759
 123.116545, 19490.040547
 123.118211, 19490.025335
 123.119878, 19490.010123
 123.121545, 19489.994911
 123.123211, 19489.979700
 123.124878, 19489.964488
 123.126545, 19489.949276
 123.128211, 19489.934064
 123.129878, 19489.918852
 123.131545, 19489.903630
 123.133211, 19489.888405
 123.134878, 19489.873180
 123.136545, 19489.857955
 123.138211, 19489.842731
 123.139878, 19489.827506
 123.141545, 19489.812281
 123.143211, 19489.797056
 123.144878, 19489.781832
 123.146545, 19489.766607
 123.148211, 19489.751371
 123.149878, 19489.736134
 123.151545, 19489.720896
 123.153211, 19489.705658
 123.154878, 19489.690421
 123.156545, 19489.675183
 123.158211, 19489.659945
 123.159878, 19489.644708
 123.161545, 19489.629470
 123.163211, 19489.614232
 123.164878, 19489.598984
 123.166545, 19489.583733
 123.168211, 19489.568483
 123.169878, 19489.553232
 123.171545, 19489.537981
 123.173211, 19489.522731
 123.174878, 19489.507480
 123.176545, 19489.492229
 123.178211, 19489.476979
 123.179878, 19489.461728
 123.181545, 19489.446467
 123.183211, 19489.431203
 123.184878, 19489.415939
 123.186545, 19489.400676
 123.188211, 19489.385412
 123.189878, 19489.370149
 123.191545, 19489.354885
 123.193211, 19489.339621
 123.194878, 19489.324358
 123.196545, 19489.309094
 123.198211, 19489.293820
 123.199878, 19489.278543
 123.201545, 19489.263266
 123.203211, 19489.247990
 123.204878, 19489.232713
 123.206545, 19489.217437
 123.208211, 19489.202160
 123.209878, 19489.186883
 123.211545, 19489.171607
 123.213211, 19489.156330
 123.214878, 19489.141043
 123.216545, 19489.125753
 123.218211, 19489.110464
 123.219878, 19489.095174
 123.221545, 19489.079884
 123.223211, 19489.064595
 123.224878, 19489.049305
 123.226545, 19489.034016
 123.228211, 19489.018726
 123.229878, 19489.003437
 123.231545, 19488.988136
 123.233211, 19488.972834
 123.234878, 19488.957532
 123.236545, 19488.942229
 123.238211, 19488.926927
 123.239878, 19488.911624
 123.241545, 19488.896322
 123.243211, 19488.881019
 123.244878, 19488.865717
 123.246545, 19488.850415
 123.248211, 19488.835101
 123.249878, 19488.819786
 123.251545, 19488.804471
 123.253211, 19488.789156
 123.254878, 19488.773840
 123.256545, 19488.758525
 123.258211, 19488.743210
 123.259878, 19488.727895
 123.261545, 19488.712580
 123.263211, 19488.697264
 123.264878, 19488.681938
 123.266545, 19488.666611
 123.268211, 19488.651283
 123.269878, 19488.635955
 123.271545, 19488.620627
 123.273211, 19488.605299
 123.274878, 19488.589971
 123.276545, 19488.574643
 123.278211, 19488.559315
 123.279878, 19488.543987
 123.281545, 19488.528649
 123.283211, 19488.513309
 123.284878, 19488.497969
 123.286545, 19488.482630
 123.288211, 19488.467290
 123.289878, 19488.451950
 123.291545, 19488.436610
 123.293211, 19488.421270
 123.294878, 19488.405930
 123.296545, 19488.390585
 123.298211, 19488.375233
 123.299878, 19488.359881
 123.301545, 19488.344529
 123.303211, 19488.329177
 123.304878, 19488.313825
 123.306545, 19488.298473
 123.308211, 19488.283121
 123.309878, 19488.267769
 123.311545, 19488.252417
 123.313211, 19488.237060
 123.314878, 19488.221696
 123.316545, 19488.206332
 123.318211, 19488.190968
 123.319878, 19488.175604
 123.321545, 19488.160239
 123.323211, 19488.144875
 123.324878, 19488.129511
 123.326545, 19488.114147
 123.328211, 19488.098783
 123.329878, 19488.083414
 123.331545, 19488.068037
 123.333211, 19488.052661
 123.334878, 19488.037285
 123.336545, 19488.021909
 123.338211, 19488.006533
 123.339878, 19487.991157
 123.341545, 19487.975781
 123.343211, 19487.960404
 123.344878, 19487.945028
 123.346545, 19487.929647
 123.348211, 19487.914259
 123.349878, 19487.898871
 123.351545, 19487.883483
 123.353211, 19487.868095
 123.354878, 19487.852707
 123.356545, 19487.837319
 123.358211, 19487.821931
 123.359878, 19487.806543
 123.361545, 19487.791155
 123.363211, 19487.775762
 123.364878, 19487.760363
 123.366545, 19487.744963
 123.368211, 19487.729564
 123.369878, 19487.714164
 123.371545, 19487.698764
 123.373211, 19487.683365
 123.374878, 19487.667965
 123.376545, 19487.652566
 123.378211, 19487.637166
 123.379878, 19487.621762
 123.381545, 19487.606351
 123.383211, 19487.590940
 123.384878, 19487.575529
 123.386545, 19487.560118
 123.388211, 19487.544707
 123.389878, 19487.529296
 123.391545, 19487.513885
 123.393211, 19487.498474
 123.394878, 19487.483063
 123.396545, 19487.467648
 123.398211, 19487.452226
 123.399878, 19487.436804
 123.401545, 19487.421382
 123.403211, 19487.405960
 123.404878, 19487.390538
 123.406545, 19487.375116
 123.408211, 19487.359694
 123.409878, 19487.344272
 123.411545, 19487.328850
 123.413211, 19487.313423
 123.414878, 19487.297990
 123.416545, 19487.282557
 123.418211, 19487.267124
 123.419878, 19487.251691
 123.421545, 19487.236258
 123.423211, 19487.220825
 123.424878, 19487.205392
 123.426545, 19487.189960
 123.428211, 19487.174527
 123.429878, 19487.159089
 123.431545, 19487.143645
 123.433211, 19487.128202
 123.434878, 19487.112758
 123.436545, 19487.097315
 123.438211, 19487.081871
 123.439878, 19487.066427
 123.441545, 19487.050984
 123.443211, 19487.035540
 123.444878, 19487.020096
 123.446545, 19487.004648
 123.448211, 19486.989194
 123.449878, 19486.973740
 123.451545, 19486.958286
 123.453211, 19486.942832
 123.454878, 19486.927378
 123.456545, 19486.911924
 123.458211, 19486.896470
 123.459878, 19486.881016
 123.461545, 19486.865562
 123.463211, 19486.850103
 123.464878, 19486.834639
 123.466545, 19486.819174
 123.468211, 19486.803710
 123.469878, 19486.788246
 123.471545, 19486.772782
 123.473211, 19486.757317
 123.474878, 19486.741853
 123.476545, 19486.726389
 123.478211, 19486.710924
 123.479878, 19486.695456
 123.481545, 19486.679981
 123.483211, 19486.664507
 123.484878, 19486.649033
 123.486545, 19486.633559
 123.488211, 19486.618084
 123.489878, 19486.602610
 123.491545, 19486.587136
 123.493211, 19486.571661
 123.494878, 19486.556187
 123.496545, 19486.540708
 123.498211, 19486.525224
 123.499878, 19486.509740
 123.501545, 19486.494256
 123.503211, 19486.478772
 123.504878, 19486.463288
 123.506545, 19486.447804
 123.508211, 19486.432320
 123.509878, 19486.416836
 123.511545, 19486.401352
 123.513211, 19486.385863
 123.514878, 19486.370370
 123.516545, 19486.354876
 123.518211, 19486.339383
 123.519878, 19486.323889
 123.521545, 19486.308395
 123.523211, 19486.292902
 123.524878, 19486.277408
 123.526545, 19486.261914
 123.528211, 19486.246421
 123.529878, 19486.230923
 123.531545, 19486.215420
 123.533211, 19486.199917
 123.534878, 19486.184414
 123.536545, 19486.168911
 123.538211, 19486.153408
 123.539878, 19486.137905
 123.541545, 19486.122402
 123.543211, 19486.106900
 123.544878, 19486.091397
 123.546545, 19486.075890
 123.548211, 19486.060378
 123.549878, 19486.044866
 123.551545, 19486.029354
 123.553211, 19486.013842
 123.554878, 19485.998330
 123.556545, 19485.982818
 123.558211, 19485.967306
 123.559878, 19485.951794
 123.561545, 19485.936282
 123.563211, 19485.920766
 123.564878, 19485.905245
 123.566545, 19485.889725
 123.568211, 19485.874204
 123.569878, 19485.858683
 123.571545, 19485.843162
 123.573211, 19485.827641
 123.574878, 19485.812121
 123.576545, 19485.796600
 123.578211, 19485.781079
 123.579878, 19485.765554
 123.581545, 19485.750025
 123.583211, 19485.734496
 123.584878, 19485.718966
 123.586545, 19485.703437
 123.588211, 19485.687907
 123.589878, 19485.672378
 123.591545, 19485.656849
 123.593211, 19485.641319
 123.594878, 19485.625790
 123.596545, 19485.610257
 123.598211, 19485.594719
 123.599878, 19485.579181
 123.601545, 19485.563644
 123.603211, 19485.548106
 123.604878, 19485.532568
 123.606545, 19485.517030
 123.608211, 19485.501493
 123.609878, 19485.485955
 123.611545, 19485.470417
 123.613211, 19485.454874
 123.614878, 19485.439325
 123.616545, 19485.423775
 123.618211, 19485.408226
 123.619878, 19485.392677
 123.621545, 19485.377127
 123.623211, 19485.361578
 123.624878, 19485.346028
 123.626545, 19485.330479
 123.628211, 19485.314929
 123.629878, 19485.299371
 123.631545, 19485.283801
 123.633211, 19485.268232
 123.634878, 19485.252662
 123.636545, 19485.237092
 123.638211, 19485.221523
 123.639878, 19485.205953
 123.641545, 19485.190383
 123.643211, 19485.174814
 123.644878, 19485.159244
 123.646545, 19485.143658
 123.648211, 19485.128068
 123.649878, 19485.112478
 123.651545, 19485.096889
 123.653211, 19485.081299
 123.654878, 19485.065709
 123.656545, 19485.050120
 123.658211, 19485.034530
 123.659878, 19485.018941
 123.661545, 19485.003351
 123.663211, 19484.987745
 123.664878, 19484.972135
 123.666545, 19484.956526
 123.668211, 19484.940916
 123.669878, 19484.925307
 123.671545, 19484.909697
 123.673211, 19484.894088
 123.674878, 19484.878478
 123.676545, 19484.862869
 123.678211, 19484.847259
 123.679878, 19484.831634
 123.681545, 19484.816005
 123.683211, 19484.800376
 123.684878, 19484.784747
 123.686545, 19484.769119
 123.688211, 19484.753490
 123.689878, 19484.737861
 123.691545, 19484.722233
 123.693211, 19484.706604
 123.694878, 19484.690975
 123.696545, 19484.675331
 123.698211, 19484.659683
 123.699878, 19484.644035
 123.701545, 19484.628388
 123.703211, 19484.612740
 123.704878, 19484.597092
 123.706545, 19484.581444
 123.708211, 19484.565797
 123.709878, 19484.550149
 123.711545, 19484.534501
 123.713211, 19484.518839
 123.714878, 19484.503173
 123.716545, 19484.487507
 123.718211, 19484.471842
 123.719878, 19484.456176
 123.721545, 19484.440510
 123.723211, 19484.424844
 123.724878, 19484.409179
 123.726545, 19484.393513
 123.728211, 19484.377840
 123.729878, 19484.362157
 123.731545, 19484.346475
 123.733211, 19484.330793
 123.734878, 19484.315110
 123.736545, 19484.299428
 123.738211, 19484.283745
 123.739878, 19484.268063
 123.741545, 19484.252380
 123.743211, 19484.236691
 123.744878, 19484.220992
 123.746545, 19484.205293
 123.748211, 19484.189594
 123.749878, 19484.173895
 123.751545, 19484.158197
 123.753211, 19484.142498
 123.754878, 19484.126799
 123.756545, 19484.111100
 123.758211, 19484.095401
 123.759878, 19484.079689
 123.761545, 19484.063973
 123.763211, 19484.048257
 123.764878, 19484.032542
 123.766545, 19484.016826
 123.768211, 19484.001111
 123.769878, 19483.985395
 123.771545, 19483.969679
 123.773211, 19483.953964
 123.774878, 19483.938248
 123.776545, 19483.922519
 123.778211, 19483.906787
 123.779878, 19483.891054
 123.781545, 19483.875322
 123.783211, 19483.859590
 123.784878, 19483.843858
 123.786545, 19483.828125
 123.788211, 19483.812393
 123.789878, 19483.796661
 123.791545, 19483.780929
 123.793211, 19483.765184
 123.794878, 19483.749435
 123.796545, 19483.733687
 123.798211, 19483.717939
 123.799878, 19483.702190
 123.801545, 19483.686442
 123.803211, 19483.670694
 123.804878, 19483.654946
 123.806545, 19483.639197
 123.808211, 19483.623449
 123.809878, 19483.607688
 123.811545, 19483.591924
 123.813211, 19483.576161
 123.814878, 19483.560397
 123.816545, 19483.544633
 123.818211, 19483.528870
 123.819878, 19483.513106
 123.821545, 19483.497342
 123.823211, 19483.481578
 123.824878, 19483.465815
 123.826545, 19483.450039
 123.828211, 19483.434260
 123.829878, 19483.418482
 123.831545, 19483.402703
 123.833211, 19483.386925
 123.834878, 19483.371146
 123.836545, 19483.355367
 123.838211, 19483.339589
 123.839878, 19483.323810
 123.841545, 19483.308032
 123.843211, 19483.292242
 123.844878, 19483.276449
 123.846545, 19483.260656
 123.848211, 19483.244863
 123.849878, 19483.229070
 123.851545, 19483.213277
 123.853211, 19483.197484
 123.854878, 19483.181691
 123.856545, 19483.165898
 123.858211, 19483.150106
 123.859878, 19483.134301
 123.861545, 19483.118495
 123.863211, 19483.102688
 123.864878, 19483.086881
 123.866545, 19483.071074
 123.868211, 19483.055267
 123.869878, 19483.039460
 123.871545, 19483.023654
 123.873211, 19483.007847
 123.874878, 19482.992040
 123.876545, 19482.976222
 123.878211, 19482.960402
 123.879878, 19482.944582
 123.881545, 19482.928762
 123.883211, 19482.912942
 123.884878, 19482.897122
 123.886545, 19482.881302
 123.888211, 19482.865482
 123.889878, 19482.849662
 123.891545, 19482.833837
 123.893211, 19482.818004
 123.894878, 19482.802172
 123.896545, 19482.786339
 123.898211, 19482.770506
 123.899878, 19482.754673
 123.901545, 19482.738840
 123.903211, 19482.723007
 123.904878, 19482.707175
 123.906545, 19482.691342
 123.908211, 19482.675505
 123.909878, 19482.659659
 123.911545, 19482.643814
 123.913211, 19482.627969
 123.914878, 19482.612123
 123.916545, 19482.596278
 123.918211, 19482.580433
 123.919878, 19482.564587
 123.921545, 19482.548742
 123.923211, 19482.532896
 123.924878, 19482.517047
 123.926545, 19482.501190
 123.928211, 19482.485332
 123.929878, 19482.469475
 123.931545, 19482.453617
 123.933211, 19482.437760
 123.934878, 19482.421902
 123.936545, 19482.406045
 123.938211, 19482.390187
 123.939878, 19482.374330
 123.941545, 19482.358468
 123.943211, 19482.342599
 123.944878, 19482.326730
 123.946545, 19482.310861
 123.948211, 19482.294992
 123.949878, 19482.279123
 123.951545, 19482.263254
 123.953211, 19482.247385
 123.954878, 19482.231516
 123.956545, 19482.215647
 123.958211, 19482.199769
 123.959878, 19482.183889
 123.961545, 19482.168009
 123.963211, 19482.152129
 123.964878, 19482.136250
 123.966545, 19482.120370
 123.968211, 19482.104490
 123.969878, 19482.088610
 123.971545, 19482.072730
 123.973211, 19482.056850
 123.974878, 19482.040959
 123.976545, 19482.025069
 123.978211, 19482.009178
 123.979878, 19481.993288
 123.981545, 19481.977398
 123.983211, 19481.961507
 123.984878, 19481.945617
 123.986545, 19481.929726
 123.988211, 19481.913836
 123.989878, 19481.897945
 123.991545, 19481.882044
 123.993211, 19481.866143
 123.994878, 19481.850243
 123.996545, 19481.834342
 123.998211, 19481.818442
 123.999878, 19481.802541
 124.001545, 19481.786640
 124.003211, 19481.770740
 124.004878, 19481.754839
 124.006545, 19481.738938
 124.008211, 19481.723027
 124.009878, 19481.707117
 124.011545, 19481.691207
 124.013211, 19481.675296
 124.014878, 19481.659386
 124.016545, 19481.643475
 124.018211, 19481.627565
 124.019878, 19481.611655
 124.021545, 19481.595744
 124.023211, 19481.579833
 124.024878, 19481.563914
 124.026545, 19481.547994
 124.028211, 19481.532074
 124.029878, 19481.516154
 124.031545, 19481.500235
 124.033211, 19481.484315
 124.034878, 19481.468395
 124.036545, 19481.452476
 124.038211, 19481.436556
 124.039878, 19481.420635
 124.041545, 19481.404707
 124.043211, 19481.388778
 124.044878, 19481.372850
 124.046545, 19481.356921
 124.048211, 19481.340993
 124.049878, 19481.325064
 124.051545, 19481.309136
 124.053211, 19481.293207
 124.054878, 19481.277279
 124.056545, 19481.261349
 124.058211, 19481.245412
 124.059878, 19481.229475
 124.061545, 19481.213538
 124.063211, 19481.197601
 124.064878, 19481.181665
 124.066545, 19481.165728
 124.068211, 19481.149791
 124.069878, 19481.133854
 124.071545, 19481.117917
 124.073211, 19481.101979
 124.074878, 19481.086034
 124.076545, 19481.070089
 124.078211, 19481.054144
 124.079878, 19481.038199
 124.081545, 19481.022254
 124.083211, 19481.006310
 124.084878, 19480.990365
 124.086545, 19480.974420
 124.088211, 19480.958475
 124.089878, 19480.942529
 124.091545, 19480.926578
 124.093211, 19480.910627
 124.094878, 19480.894676
 124.096545, 19480.878725
 124.098211, 19480.862774
 124.099809, 19480.847486
 124.101475, 19480.831531
 124.103142, 19480.815577
 124.104809, 19480.799622
 124.106475, 19480.784128
 124.108142, 19480.778210
 124.109809, 19480.772292
 124.111475, 19480.766374
 124.113142, 19480.760455
 124.114809, 19480.754537
 124.116475, 19480.748619
 124.118142, 19480.742701
 124.119809, 19480.736783
 124.121475, 19480.730865
 124.123142, 19480.724947
 124.124809, 19480.719035
 124.126472, 19480.713134
 124.128139, 19480.707227
 124.129806, 19480.701320
 124.131472, 19480.695414
 124.133139, 19480.689507
 124.134806, 19480.683600
 124.136472, 19480.677693
 124.138139, 19480.671787
 124.139806, 19480.666111
 124.141472, 19480.665466
 124.143139, 19480.664821
 124.144806, 19480.664176
 124.144883, 19480.664146
 124.146549, 19480.666051
 124.148216, 19480.667957
 124.149883, 19480.669862
 124.151549, 19480.671767
 124.153216, 19480.673673
 124.154883, 19480.675578
 124.156549, 19480.677311
 124.158216, 19480.677311
 124.159883, 19480.677311
 124.161549, 19480.677311
 124.163216, 19480.677311
 124.164883, 19480.677311
 124.166549, 19480.677311
 124.168216, 19480.677311
 124.169883, 19480.677311
 124.171549, 19480.677311
 124.173216, 19480.677311
 124.174883, 19480.677311
 124.176549, 19480.677311
 124.178216, 19480.677311
 124.179883, 19480.677311
 124.181549, 19480.677311
 124.183216, 19480.677311
 124.184883, 19480.677311
 124.186549, 19480.677311
 124.188216, 19480.677311
 124.189883, 19480.677311
 124.191549, 19480.677311
 124.193216, 19480.677311
 124.194883, 19480.677311
 124.196549, 19480.677311
 124.198216, 19480.677311
 124.199883, 19480.677311
 124.201549, 19480.677311
 124.203216, 19480.677311
 124.204883, 19480.677311
 124.206549, 19480.677311
 124.208216, 19480.677311
 124.209883, 19480.677311
 124.211549, 19480.677311
 124.213216, 19480.677311
 124.214883, 19480.677311
 124.216549, 19480.677311
 124.218216, 19480.677311
 124.219883, 19480.677311
 124.221549, 19480.677311
 124.223216, 19480.677311
 124.224883, 19480.677311
 124.226549, 19480.677311
 124.228216, 19480.677311
 124.229883, 19480.677311
 124.231549, 19480.677311
 124.233216, 19480.677311
 124.234883, 19480.677311
 124.236549, 19480.677311
 124.238216, 19480.677311
 124.239883, 19480.677311
 124.241549, 19480.677311
 124.243216, 19480.677311
 124.244883, 19480.677311
 124.246549, 19480.677311
 124.248216, 19480.677311
 124.249883, 19480.677311
 124.251549, 19480.677311
 124.253216, 19480.677311
 124.254883, 19480.677311
 124.256549, 19480.677311
 124.258216, 19480.677311
 124.259883, 19480.677311
 124.261549, 19480.677311
 124.263216, 19480.677311
 124.264883, 19480.677311
 124.266549, 19480.677311
 124.268216, 19480.677311
 124.269883, 19480.677311
 124.271549, 19480.677311
 124.273216, 19480.677311
 124.274883, 19480.677311
 124.276549, 19480.677311
 124.278216, 19480.677311
 124.279883, 19480.677311
 124.281549, 19480.677311
 124.283216, 19480.677311
 124.284883, 19480.677311
 124.286549, 19480.677311
 124.288216, 19480.677311
 124.289883, 19480.677311
 124.291549, 19480.677311
 124.293216, 19480.677311
 124.294883, 19480.677311
 124.296549, 19480.677311
 124.298216, 19480.677311
 124.299883, 19480.677311
 124.301549, 19480.677311
 124.303216, 19480.677311
 124.304883, 19480.677311
 124.306549, 19480.677311
 124.308216, 19480.677311
 124.309883, 19480.677311
 124.311549, 19480.677311
 124.313216, 19480.677311
 124.314883, 19480.677311
 124.316549, 19480.677311
 124.318216, 19480.677311
 124.319883, 19480.677311
 124.321549, 19480.677311
 124.323216, 19480.677311
 124.324883, 19480.677311
 124.326549, 19480.677311
 124.328216, 19480.677311
 124.329883, 19480.677311
 124.331549, 19480.677311
 124.333216, 19480.677311
 124.334883, 19480.677311
 124.336549, 19480.677311
 124.338216, 19480.677311
 124.339883, 19480.677311
 124.341549, 19480.677311
 124.343216, 19480.677311
 124.344883, 19480.677311
 124.346549, 19480.677311
 124.348216, 19480.677311
 124.349883, 19480.677311
 124.351549, 19480.677311
 124.353216, 19480.677311
 124.354883, 19480.677311
 124.356549, 19480.677311
 124.358216, 19480.677311
 124.359883, 19480.677311
 124.361549, 19480.677311
 124.363216, 19480.677311
 124.364883, 19480.677311
 124.366549, 19480.677311
 124.368216, 19480.677311
 124.369883, 19480.677311
 124.371549, 19480.677311
 124.373216, 19480.677311
 124.374883, 19480.677311
 124.376549, 19480.677311
 124.378216, 19480.677311
 124.379883, 19480.677311
 124.381549, 19480.677311
 124.383216, 19480.677311
 124.384883, 19480.677311
 124.386549, 19480.677311
 124.388216, 19480.677311
 124.389883, 19480.677311
 124.391549, 19480.677311
 124.393216, 19480.677311
 124.394883, 19480.677311
 124.396549, 19480.677311
 124.398216, 19480.677311
 124.399883, 19480.677311
 124.401549, 19480.677311
 124.403216, 19480.677311
 124.404883, 19480.677311
 124.406549, 19480.677311
 124.408216, 19480.677311
 124.409883, 19480.677311
 124.411549, 19480.677311
 124.413216, 19480.677311
 124.414883, 19480.677311
 124.416549, 19480.677311
 124.418216, 19480.677311
 124.419883, 19480.677311
 124.421549, 19480.677311
 124.421857, 19480.677311
