Ground Distance, Angles
   0.000000,    0.000000
   0.000001,    0.000000
   0.000014,    0.000000
   0.000156,    0.000000
   0.000782,    0.000000
   0.002688,    0.000000
   0.007394,    0.000000
   0.014461,    0.000000
   0.023877,    0.000000
   0.035670,    0.000000
   0.049839,    0.000000
   0.066438,    0.000000
   0.085437,    0.000000
   0.106783,    0.000000
   0.130585,    0.000000
   0.156972,    0.000000
   0.186117,    0.000000
   0.217660,    0.000000
   0.251836,    0.000000
   0.289052,    0.000000
   0.328332,    0.000000
   0.371428,    0.000000
   0.416840,    0.000000
   0.465161,    0.000000
   0.516737,    0.000000
   0.570731,    0.000000
   0.628089,    0.000000
   0.688250,    0.000000
   0.752418,    0.000000
   0.819968,    0.000000
   0.891399,    0.000000
   0.964810,    0.000000
   1.041959,    0.000000
   1.123790,    0.000000
   1.208075,    0.000000
   1.297802,    0.000000
   1.390692,    0.000000
   1.487032,    0.000000
   1.587141,    0.000000
   1.692428,    0.000000
   1.800283,    0.000000
   1.912911,    0.000000
   2.029919,    0.000000
   2.152339,    0.000000
   2.277627,    0.000000
   2.407565,    0.000000
   2.542818,    0.000000
   2.683973,    0.000000
   2.827889,    0.000000
   2.976902,    0.000000
   3.131878,    0.000000
   3.291233,    0.000000
   3.454741,    0.000000
   3.623499,    0.000000
   3.798434,    0.000000
   3.976737,    0.000000
   4.163292,    0.000000
   4.356661,    0.000000
   4.554217,    0.000000
   4.758197,    0.000000
   4.967340,    0.000000
   5.183097,    0.000000
   5.403511,    0.000000
   5.631031,    0.000000
   5.861511,    0.000000
   6.100839,    0.000000
   6.348931,    0.000000
   6.600544,    0.000000
   6.856919,    0.000000
   7.118577,    0.000000
   7.390726,    0.000000
   7.669395,    0.000000
   7.956244,    0.000000
   8.249842,    0.000000
   8.549883,    0.000000
   8.856458,    0.000000
   9.169849,    0.000000
   9.495203,    0.000000
   9.822850,    0.000000
  10.154795,    0.000000
  10.500140,    0.000000
  10.852299,    0.000000
  11.212496,    0.000000
  11.578409,    0.000000
  11.954403,    0.000000
  12.336114,    0.000000
  12.728920,    0.000000
  13.129295,    0.000000
  13.536378,    0.000000
  13.952968,    0.000000
  14.375267,    0.000000
  14.811546,    0.000000
  15.252071,    0.000000
  15.702175,    0.000000
  16.161120,    0.000000
  16.633288,    0.000000
  17.107971,    0.000000
  17.595842,    0.000000
  18.095189,    0.000000
  18.598346,    0.000000
  19.109865,    0.000000
  19.635729,    0.000000
  20.168658,    0.000000
  20.715181,    0.000000
  21.268122,    0.000000
  21.831991,    0.000000
  22.403363,    0.000000
  22.983593,    0.000000
  23.572757,    0.000000
  24.176016,    0.000000
  24.787088,    0.000000
  25.410767,    0.000000
  26.043338,    0.000000
  26.169919,    0.000000
  26.494846,    0.000000
  26.629007,    0.000000
  26.643179,    0.000000
  26.655968,    0.000000
  26.658269,    0.000000
  26.661207,    0.000000
  26.662120,    0.000000
  26.662483,    0.000000
  26.663158,    0.000000
  26.663775,    0.000000
  26.668653,    0.000000
  26.701120,    0.000000
  26.822373,    0.000000
  27.193703,    0.000000
  27.787297,    0.000000
  28.397195,    0.000000
  29.015889,    0.000000
  29.647682,    0.000000
  30.283367,    0.000000
  30.929807,    0.000000
  31.591149,    0.000000
  32.256399,    0.000000
  32.934857,    0.000000
  33.617578,    0.000000
  34.311839,    0.000000
  35.015570,    0.000000
  35.732444,    0.000000
  36.457795,    0.000000
  37.193731,    0.000000
  37.932053,    0.000000
  38.683547,    0.000000
  39.446026,    0.000000
  40.217394,    0.000000
  41.000371,    0.000000
  41.794755,    0.000000
  42.598588,    0.000000
  43.412059,    0.000000
  44.235472,    0.000000
  45.067210,    0.000000
  45.914564,    0.000000
  46.769184,    0.000000
  47.636519,    0.000000
  48.513122,    0.000000
  49.397261,    0.000000
  50.298040,    0.000000
  51.201095,    0.000000
  52.113844,    0.000000
  53.048877,    0.000000
  53.985926,    0.000000
  54.930432,    0.000000
  55.884656,    0.000000
  56.860890,    0.000000
  57.847599,    0.000000
  58.841631,    0.000000
  59.844509,    0.000000
  60.859888,    0.000000
  61.888010,    0.000000
  62.925198,    0.000000
  63.980448,    0.000000
  65.044450,    0.000000
  66.117907,    0.000000
  67.204698,    0.000000
  68.299961,    0.000000
  69.411012,    0.000000
  70.533893,    0.000000
  71.662298,    0.000000
  72.806082,    0.000000
  73.962541,    0.000000
  75.132446,    0.000000
  76.312262,    0.000000
  77.506463,    0.000000
  78.709912,    0.000000
  79.929850,    0.000000
  81.159276,    0.000000
  82.401849,    0.000000
  83.659830,    0.000000
  84.924708,    0.000000
  86.204957,    0.000000
  87.493807,    0.000000
  88.798759,    0.000000
  90.112788,    0.000000
  91.437154,    0.000000
  92.777156,    0.000000
  94.136749,    0.000000
  95.506412,    0.000000
  96.886207,    0.000000
  98.274989,    0.000000
  99.678292,    0.000000
 101.100091,    0.000000
 102.531173,    0.000000
 103.978026,    0.000000
 105.434947,    0.000000
 106.904419,    0.000000
 108.390627,    0.000000
 109.895543,    0.000000
 110.198421,    0.000000
 110.564547,    0.000000
 110.834063,    0.000000
 110.876456,    0.000000
 110.921166,    0.000000
 110.959292,    0.000000
 110.967641,    0.000000
 110.977788,    0.000000
 110.989894,    0.000000
 110.992752,    0.000000
 110.992940,    0.000000
 110.993113,    0.000000
 110.994853,    0.000000
 111.009991,    0.000000
 111.097964,    0.000000
 111.547186,    0.000000
 112.860866,    0.000000
 114.266455,    0.000000
 115.679540,    0.000000
 117.099020,    0.000000
 118.534416,    0.000000
 119.981208,    0.000000
 121.446330,    0.000000
 122.917836,    0.000000
 124.396628,    0.000000
 125.890441,    0.000000
 127.390297,    0.000000
 128.903734,    0.000000
 130.430490,    0.000000
 131.969175,    0.000000
 133.521388,    0.000000
 135.084137,    0.000000
 136.662149,    0.000000
 138.246450,    0.000000
 139.842832,    0.000000
 141.455977,    0.000000
 143.083152,    0.000000
 144.718144,    0.000000
 146.366353,    0.000000
 148.023172,    0.000000
 149.691522,    0.000000
 151.375738,    0.000000
 153.066769,    0.000000
 154.775672,    0.000000
 156.495167,    0.000000
 158.230901,    0.000000
 159.973305,    0.000000
 161.731741,    0.000000
 163.507115,    0.000000
 165.286570,    0.000000
 167.085433,    0.000000
 168.889736,    0.000000
 170.710084,    0.000000
 172.535956,    0.000000
 174.379963,    0.000000
 176.236144,    0.000000
 178.102306,    0.000000
 179.986759,    0.000000
 181.884350,    0.000000
 183.785815,    0.000000
 185.707215,    0.000000
 187.642639,    0.000000
 189.592614,    0.000000
 191.549145,    0.000000
 193.521358,    0.000000
 195.503825,    0.000000
 197.509371,    0.000000
 199.524923,    0.000000
 201.548124,    0.000000
 203.581828,    0.000000
 205.630464,    0.000000
 207.687852,    0.000000
 209.764231,    0.000000
 211.855254,    0.000000
 213.958095,    0.000000
 216.078073,    0.000000
 218.215767,    0.000000
 220.349109,    0.000000
 222.500246,    0.000000
 224.669598,    0.000000
 226.839657,    0.000000
 229.034060,    0.000000
 231.243359,    0.000000
 233.464283,    0.000000
 235.699335,    0.000000
 237.946174,    0.000000
 240.215558,    0.000000
 242.488415,    0.000000
 244.781882,    0.000000
 247.080050,    0.000000
 249.392953,    0.000000
 251.729187,    0.000000
 254.061639,    0.000000
 256.417401,    0.000000
 258.787229,    0.000000
 261.173672,    0.000000
 263.574887,    0.000000
 263.671358,    0.000000
 263.762966,    0.000000
 263.861555,    0.000000
 263.879612,    0.000000
 263.900162,    0.000000
 263.906707,    0.000000
 263.916463,    0.000000
 263.921394,    0.000000
 263.923387,    0.000000
 263.924093,    0.000000
 263.924427,    0.000000
 263.924996,    0.000000
 263.925513,    0.000000
 263.930687,    0.000000
 263.977245,    0.000000
 264.226896,    0.000000
 265.237386,    0.000000
 267.412174,    0.000000
 269.583205,    0.000000
 271.771590,    0.000000
 273.977906,    0.000000
 276.192292,    0.000000
 278.411473,    0.000000
 280.641450,    0.000000
 282.890075,    0.000000
 285.144322,    0.000000
 287.407226,    0.000000
 289.685301,    0.000000
 291.971847,    0.000000
 294.276523,    0.000000
 296.593410,    0.000000
 298.917722,    0.000000
 301.252833,    0.000000
 303.600178,    0.000000
 305.963317,    0.000000
 308.342386,    0.000000
 310.726636,    0.000000
 313.117050,    0.000000
 315.522256,    0.000000
 317.934247,    0.000000
 320.364759,    0.000000
 322.806111,    0.000000
 325.253808,    0.000000
 327.713494,    0.000000
 330.189883,    0.000000
 332.678927,    0.000000
 335.173708,    0.000000
 337.687246,    0.000000
 340.212846,    0.000000
 342.749723,    0.000000
 345.297555,    0.000000
 347.857373,    0.000000
 350.427018,    0.000000
 353.011656,    0.000000
 355.603425,    0.000000
 358.212615,    0.000000
 360.827598,    0.000000
 363.454117,    0.000000
 366.100994,    0.000000
 368.762000,    0.000000
 371.429267,    0.000000
 374.103208,    0.000000
 376.791302,    0.000000
 379.489623,    0.000000
 382.201299,    0.000000
 384.930998,    0.000000
 387.672358,    0.000000
 390.421265,    0.000000
 393.185254,    0.000000
 395.960141,    0.000000
 398.747524,    0.000000
 401.548619,    0.000000
 404.360312,    0.000000
 407.190528,    0.000000
 410.021887,    0.000000
 412.867217,    0.000000
 415.726201,    0.000000
 418.602485,    0.000000
 421.493731,    0.000000
 424.400312,    0.000000
 427.316887,    0.000000
 430.237645,    0.000000
 433.177335,    0.000000
 436.125433,    0.000000
 439.086448,    0.000000
 442.056814,    0.000000
 445.041222,    0.000000
 448.041262,    0.000000
 451.051126,    0.000000
 454.070852,    0.000000
 457.109647,    0.000000
 460.155685,    0.000000
 463.214483,    0.000000
 466.284829,    0.000000
 469.370966,    0.000000
 472.466897,    0.000000
 475.579008,    0.000000
 478.704065,    0.000000
 481.840231,    0.000000
 484.987183,    0.000000
 488.147155,    0.000000
 491.321951,    0.000000
 494.513920,    0.000000
 497.713657,    0.000000
 500.923931,    0.000000
 504.140767,    0.000000
 504.789070,    0.000000
 507.091731,    0.000000
 507.117677,    0.000000
 507.159085,    0.000000
 507.165796,    0.000000
 507.169939,    0.000000
 507.171581,    0.000000
 507.173220,    0.000000
 507.189605,    0.000000
 507.339902,    0.000000
 508.087235,    0.000000
 510.943792,    0.000000
 514.187978,    0.000000
 517.452065,    0.000000
 520.717477,    0.000000
 524.007872,    0.000000
 527.303099,    0.000000
 530.615794,    0.000000
 533.939278,    0.000000
 537.278157,    0.000000
 540.627039,    0.000000
 543.991458,    0.000000
 547.364457,    0.000000
 550.758404,    0.000000
 554.164052,    0.000000
 557.578302,    0.000000
 561.008264,    0.000000
 564.450928,    0.000000
 567.900736,    0.000000
 571.365015,    0.000000
 574.841034,    0.000000
 578.333107,    0.000000
 581.838122,    0.000000
 585.358801,    0.000000
 588.882201,    0.000000
 592.422945,    0.000000
 595.974916,    0.000000
 599.542915,    0.000000
 603.118290,    0.000000
 606.709583,    0.000000
 610.314935,    0.000000
 613.933479,    0.000000
 617.565515,    0.000000
 621.206300,    0.000000
 624.863452,    0.000000
 628.535184,    0.000000
 632.220959,    0.000000
 635.917931,    0.000000
 639.631641,    0.000000
 643.353475,    0.000000
 647.089852,    0.000000
 650.839357,    0.000000
 654.596071,    0.000000
 658.377799,    0.000000
 662.165256,    0.000000
 665.963105,    0.000000
 669.774314,    0.000000
 673.598442,    0.000000
 677.434635,    0.000000
 681.291518,    0.000000
 685.160417,    0.000000
 689.039234,    0.000000
 692.931144,    0.000000
 696.832410,    0.000000
 700.756330,    0.000000
 704.682464,    0.000000
 708.628034,    0.000000
 712.584787,    0.000000
 716.559773,    0.000000
 720.539275,    0.000000
 724.537449,    0.000000
 728.548926,    0.000000
 732.577085,    0.000000
 736.622639,    0.000000
 740.674237,    0.000000
 744.738236,    0.000000
 748.823272,    0.000000
 752.910552,    0.000000
 757.016260,    0.000000
 761.141747,    0.000000
 765.273152,    0.000000
 769.418390,    0.000000
 773.578345,    0.000000
 777.745710,    0.000000
 781.928315,    0.000000
 786.125809,    0.000000
 790.336488,    0.000000
 794.562164,    0.000000
 798.802116,    0.000000
 803.050237,    0.000000
 807.315515,    0.000000
 811.589358,    0.000000
 815.880756,    0.000000
 820.190194,    0.000000
 823.620470,    0.000000
 824.511379,    0.000000
 828.844571,    0.000000
 833.192403,    0.000000
 837.550309,    0.000000
 841.918516,    0.000000
 846.308232,    0.000000
 850.700745,    0.000000
 855.109925,    0.000000
 859.536690,    0.000000
 863.964684,    0.000000
 868.408194,    0.000000
 872.868274,    0.000000
 877.346079,    0.000000
 878.242159,    0.000000
 879.099921,    0.000000
 879.816704,    0.000000
 879.839401,    0.000000
 879.840380,    0.000000
 879.841360,    0.000000
 879.851156,    0.000000
 879.933943,    0.000000
 880.450043,    0.000000
 882.453601,    0.000000
 887.026448,    0.000000
 891.692320,    0.000000
 896.371670,    0.000000
 901.060391,    0.000000
 905.763699,    0.000000
 910.473445,    0.000000
 915.192847,    0.000000
 919.918664,    0.000000
 924.662938,    0.000000
 929.414114,    0.000000
 934.178792,    0.000000
 938.954960,    0.000000
 943.745996,    0.000000
 948.547714,    0.000000
 953.359130,    0.000000
 958.175579,    0.000000
 962.996408,    0.000000
 967.835657,    0.000000
 972.677751,    0.000000
 977.532975,    0.000000
 982.398225,    0.000000
 987.271396,    0.000000
 992.161192,    0.000000
 997.054609,    0.000000
 997.425698,    0.003037
 997.796402,    0.006127
 998.166271,    0.009266
 998.537772,    0.012475
 998.909136,    0.015739
 999.280373,    0.019058
 999.653540,    0.022451
1000.026475,    0.025898
1000.398121,    0.029390
1000.772122,    0.032960
1001.144687,    0.036572
1001.518822,    0.040257
1001.891609,    0.043984
1002.265514,    0.047779
1002.640688,    0.051643
1003.016378,    0.055569
1003.391470,    0.059546
1003.768203,    0.063597
1004.143761,    0.067692
1004.520729,    0.071860
1004.898483,    0.076093
1005.276739,    0.080389
1005.655435,    0.084747
1006.031553,    0.089132
1006.404893,    0.093541
1006.784522,    0.098081
1007.162825,    0.102662
1007.541980,    0.107311
1007.922306,    0.112031
1008.301950,    0.116800
1008.683428,    0.121649
1009.064867,    0.126556
1009.445750,    0.131513
1009.828715,    0.136554
1010.209237,    0.141621
1010.592647,    0.146784
1010.976883,    0.152016
1011.359834,    0.157289
1011.742292,    0.162612
1012.123887,    0.167980
1012.505258,    0.173402
1012.891434,    0.178951
1013.277505,    0.184556
1013.664262,    0.190229
1014.050654,    0.195955
1014.436214,    0.201728
1014.824784,    0.207603
1015.213458,    0.213539
1015.602935,    0.219546
1015.992667,    0.225615
1016.380063,    0.231707
1016.769054,    0.237883
1017.159916,    0.244146
1017.551975,    0.250488
1017.943818,    0.256886
1018.335877,    0.263347
1018.726811,    0.269848
1019.119403,    0.276436
1019.512199,    0.283086
1019.907567,    0.289839
1020.301395,    0.296626
1020.695766,    0.303482
1021.091040,    0.310413
1021.486290,    0.317403
1021.884013,    0.324496
1022.281627,    0.331648
1022.677145,    0.338822
1023.073757,    0.346076
1023.473972,    0.353456
1023.872836,    0.360871
1024.271608,    0.368345
1024.674157,    0.375950
1025.073145,    0.383549
1025.476690,    0.391295
1025.881540,    0.399128
1026.281173,    0.406920
1026.683496,    0.414826
1027.086385,    0.422803
1027.490041,    0.430857
1027.890307,    0.438903
1028.295451,    0.447063
1028.701981,    0.455265
1029.111782,    0.463548
1029.520479,    0.471823
1029.928527,    0.480101
1030.333178,    0.488324
1030.743997,    0.496687
1031.152566,    0.505020
1031.563588,    0.513417
1031.971972,    0.521776
1032.384233,    0.530229
1032.796578,    0.538698
1033.210067,    0.547206
1033.622015,    0.555697
1034.034463,    0.564214
1034.448716,    0.572782
1034.864329,    0.581394
1035.277299,    0.589967
1035.693382,    0.598618
1036.112271,    0.607344
1036.531691,    0.616095
1036.947698,    0.624791
1037.364863,    0.633525
1037.783291,    0.642302
1038.203875,    0.651138
1038.624306,    0.659987
1039.042208,    0.668797
1039.463428,    0.677693
1039.886043,    0.686633
1040.305215,    0.695516
1040.727412,    0.704477
1041.151781,    0.713500
1041.574915,    0.722512
1042.001758,    0.731619
1042.425677,    0.740678
1042.853380,    0.749833
1043.280399,    0.758989
1043.707482,    0.768162
1044.136200,    0.777385
1044.564572,    0.786616
1044.993892,    0.795883
1045.423178,    0.805165
1045.852485,    0.814462
1046.283895,    0.823821
1046.717854,    0.833250
1047.148549,    0.842623
1047.583871,    0.852113
1048.018497,    0.861603
1048.454540,    0.871140
1048.890450,    0.880690
1049.327575,    0.890281
1049.764268,    0.899879
1050.205183,    0.909585
1050.643737,    0.919255
1051.079849,    0.928887
1051.519997,    0.938623
1051.962478,    0.948427
1052.406326,    0.958277
1052.845545,    0.968039
1053.290327,    0.977942
1053.733160,    0.987816
1054.179459,    0.997784
1054.626183,    1.007777
1055.073032,    1.017789
1055.520605,    1.027832
1055.969950,    1.037932
1056.419832,    1.048060
1056.869241,    1.058192
1057.315440,    1.068269
1057.764955,    1.078436
1058.217142,    1.088679
1058.670927,    1.098975
1059.119471,    1.109167
1059.125247,    1.109299
1059.579930,    1.119647
1060.035509,    1.130013
1060.488067,    1.140310
1060.946401,    1.150737
1061.405987,    1.161190
1061.863402,    1.171593
1062.321023,    1.181998
1062.781800,    1.192474
1063.244985,    1.203003
1063.709443,    1.213559
1064.171979,    1.224070
1064.636842,    1.234631
1065.103454,    1.245231
1065.569593,    1.255817
1066.034789,    1.266381
1066.501678,    1.276981
1066.969196,    1.287593
1067.439176,    1.298259
1067.911961,    1.308986
1068.383113,    1.319674
1068.854492,    1.330366
1069.325881,    1.341055
1069.800809,    1.351822
1070.272981,    1.362525
1070.746940,    1.373265
1071.218039,    1.383939
1071.693053,    1.394698
1072.168471,    1.405465
1072.645306,    1.416261
1073.120072,    1.427007
1073.599482,    1.437856
1074.079306,    1.448712
1074.561159,    1.459611
1075.045255,    1.470558
1075.529341,    1.481502
1076.014510,    1.492468
1076.499556,    1.503428
1076.987315,    1.514447
1077.475086,    1.525462
1077.963988,    1.536500
1078.451889,    1.547513
1078.942220,    1.558577
1079.432018,    1.569626
1079.924920,    1.580742
1080.417192,    1.591840
1080.911829,    1.602989
1081.401373,    1.614019
1081.899272,    1.625234
1082.397844,    1.636461
1082.896509,    1.647686
1083.396483,    1.658938
1083.892611,    1.670099
1084.390818,    1.681303
1084.891859,    1.692567
1085.391532,    1.703797
1085.895971,    1.715130
1086.397187,    1.726386
1086.899379,    1.737661
1087.405925,    1.749030
1087.914011,    1.760429
1088.424076,    1.771868
1088.933266,    1.783284
1089.443722,    1.794723
1089.956651,    1.806214
1090.462656,    1.817546
1090.975916,    1.829035
1091.490700,    1.840555
1092.002004,    1.851991
1092.518658,    1.863544
1093.034518,    1.875073
1093.548316,    1.886552
1094.069046,    1.898181
1094.593293,    1.909884
1095.115014,    1.921526
1095.636126,    1.933149
1096.159531,    1.944818
1096.683880,    1.956504
1097.207994,    1.968179
1097.731252,    1.979829
1098.257993,    1.991553
1098.788500,    2.003354
1099.318755,    2.015145
1099.850672,    2.026967
1100.380549,    2.038739
1100.913852,    2.050581
1101.449996,    2.062480
1101.984568,    2.074339
1102.522642,    2.086270
1103.061015,    2.098202
1103.595656,    2.110045
1104.133984,    2.121963
1104.676079,    2.133960
1105.217919,    2.145944
1105.754810,    2.157813
1106.291649,    2.169674
1106.834014,    2.181652
1107.383562,    2.193782
1107.926828,    2.205766
1108.478420,    2.217928
1109.026471,    2.230006
1109.573378,    2.242051
1110.126427,    2.254225
1110.677567,    2.266350
1111.229429,    2.278484
1111.785100,    2.290695
1112.336222,    2.302799
1112.891413,    2.314986
1113.444812,    2.327126
1113.996200,    2.339214
1114.553199,    2.351419
1115.110654,    2.363626
1115.668536,    2.375835
1116.232040,    2.388160
1116.795863,    2.400484
1117.355623,    2.412712
1117.918099,    2.424991
1118.483654,    2.437330
1119.047831,    2.449631
1119.615269,    2.461995
1120.182247,    2.474341
1120.754136,    2.486786
1121.325593,    2.499213
1121.898637,    2.511667
1122.468437,    2.524041
1123.041674,    2.536482
1123.616684,    2.548953
1124.188958,    2.561356
1124.765450,    2.573842
1125.341435,    2.586308
1125.924404,    2.598916
1126.508667,    2.611543
1127.091788,    2.624137
1127.672629,    2.636672
1128.255181,    2.649235
1128.834538,    2.661719
1129.417506,    2.674273
1130.000039,    2.686807
1130.586122,    2.699409
1131.177357,    2.712112
1131.771426,    2.724865
1132.365096,    2.737601
1132.960813,    2.750370
1133.558503,    2.763171
1134.155154,    2.775940
1134.752217,    2.788708
1135.350549,    2.801492
1135.948929,    2.814267
1136.547025,    2.827026
1137.148939,    2.839855
1137.751466,    2.852687
1138.352208,    2.865470
1138.955504,    2.878296
1139.562840,    2.891198
1140.168294,    2.904048
1140.777968,    2.916977
1141.386426,    2.929869
1141.994720,    2.942746
1142.605113,    2.955656
1143.216630,    2.968578
1143.833088,    2.981593
1144.449610,    2.994598
1145.067623,    3.007622
1145.689157,    3.020708
1146.307509,    3.033715
1146.922966,    3.046649
1147.543537,    3.059678
1148.160951,    3.072629
1148.786146,    3.085730
1149.406679,    3.098721
1150.033767,    3.111837
1150.656422,    3.124847
1151.283907,    3.137946
1151.913065,    3.151066
1152.540121,    3.164129
1153.171548,    3.177271
1153.805007,    3.190441
1154.432469,    3.203473
1155.066484,    3.216628
1155.699450,    3.229747
1156.330752,    3.242818
1156.970933,    3.256060
1157.603734,    3.269135
1158.237028,    3.282206
1158.881518,    3.295494
1159.519766,    3.308639
1160.162728,    3.321867
1160.810562,    3.335180
1161.454037,    3.348389
1162.094479,    3.361522
1162.744941,    3.374845
1163.396295,    3.388171
1164.052803,    3.401587
1164.699432,    3.414786
1165.348608,    3.428022
1165.998492,    3.441257
1166.654630,    3.454604
1167.306475,    3.467848
1167.964372,    3.481199
1168.621632,    3.494521
1169.283468,    3.507920
1169.937987,    3.521154
1170.597655,    3.534477
1171.264242,    3.547923
1171.926549,    3.561265
1172.591885,    3.574653
1173.251356,    3.587905
1173.922968,    3.601385
1174.584907,    3.614653
1175.260462,    3.628177
1175.925958,    3.641483
1176.600935,    3.654961
1177.280650,    3.668515
1177.951492,    3.681875
1178.623495,    3.695240
1179.301040,    3.708698
1179.975919,    3.722084
1180.653393,    3.735504
1181.326768,    3.748825
1182.005346,    3.762230
1182.685982,    3.775658
1183.368403,    3.789102
1184.062923,    3.802765
1184.750859,    3.816280
1185.441100,    3.829820
1186.131240,    3.843339
1186.817397,    3.856761
1187.500033,    3.870094
1188.194452,    3.883639
1188.882824,    3.897045
1189.573411,    3.910475
1190.258531,    3.923779
1190.953462,    3.937253
1191.650560,    3.950749
1192.349867,    3.964267
1193.043853,    3.977662
1193.741638,    3.991110
1194.441235,    4.004572
1195.148113,    4.018153
1195.850622,    4.031629
1196.566347,    4.045337
1197.268306,    4.058759
1197.976759,    4.072284
1198.679238,    4.085674
1199.384654,    4.099097
1200.092409,    4.112544
1200.801846,    4.126000
1201.517398,    4.139550
1202.222557,    4.152881
1202.939711,    4.166416
1203.653161,    4.179859
1204.375820,    4.193452
1205.093603,    4.206931
1205.809533,    4.220351
1206.530992,    4.233852
1207.253476,    4.247349
1207.978362,    4.260867
1208.707767,    4.274445
1209.433360,    4.287927
1210.153841,    4.301291
1210.887279,    4.314872
1211.609587,    4.328221
1212.329940,    4.341510
1213.051632,    4.354801
1213.783210,    4.368248
1214.506615,    4.381521
1215.238318,    4.394921
1215.977443,    4.408432
1216.720672,    4.421992
1217.462577,    4.435502
1218.208944,    4.449067
1218.953362,    4.462571
1219.689218,    4.475892
1220.429692,    4.489272
1221.174086,    4.502696
1221.920584,    4.516131
1222.672682,    4.529640
1223.417183,    4.542986
1224.164454,    4.556354
1224.905508,    4.569584
1225.657282,    4.582978
1226.405266,    4.596278
1227.160218,    4.609673
1227.918346,    4.623097
1228.675762,    4.636480
1229.435739,    4.649880
1230.194569,    4.663231
1230.951763,    4.676525
1231.718280,    4.689953
1232.489181,    4.703429
1233.246841,    4.716644
1234.000240,    4.729756
1234.769801,    4.743120
1235.534373,    4.756368
1236.295910,    4.769533
1237.063706,    4.782777
1237.838905,    4.796119
1238.607724,    4.809320
1239.376694,    4.822494
1240.159034,    4.835866
1240.932219,    4.849050
1241.707726,    4.862243
1242.477608,    4.875309
1243.253649,    4.888449
1244.030250,    4.901567
1244.809197,    4.914693
1245.592715,    4.927864
1245.881547,    4.932706
